Data from mildly cloudy_Subt2__6__14-20-13-168.txt Node

Date: Mon Oct 13 14:20:13 EDT 2025
User: brett
Spectrometer: USB4F03499
Trigger mode: 4
Integration Time (sec): 4.400000E-4
Scans to average: 1
Electric dark correction enabled: true
Nonlinearity correction enabled: true
Boxcar width: 0
XAxis mode: Wavelengths
Number of Pixels in Spectrum: 3648
>>>>>Begin Spectral Data<<<<<
345.386	59.44767
345.605	59.44767
345.824	59.44767
346.044	89.97132
346.263	36.87687
346.482	-38.7231
346.701	-3.76134
346.92	12.03117
347.139	47.00133
347.358	-27.46151
347.577	-47.77368
347.796	9.7829
348.015	63.9503
348.234	5.26384
348.453	-34.23285
348.672	-15.05178
348.891	28.97074
349.11	12.03489
349.329	6.39242
349.548	42.53534
349.767	-0.37621
349.986	8.65058
350.205	-8.26601
350.424	18.82057
350.643	88.75755
350.862	38.01387
351.08	46.98319
351.299	4.13372
351.518	4.13675
351.737	31.23184
351.956	6.39292
352.174	-18.4295
352.393	16.56081
352.612	10.90346
352.831	5.26567
353.049	39.10585
353.268	41.37316
353.487	16.5499
353.705	-3.7609
353.924	-62.44074
354.143	4.13836
354.361	24.45677
354.58	32.32879
354.798	56.09081
355.017	-1.50285
355.236	58.32457
355.454	28.95504
355.673	-12.80098
355.891	-2.63238
356.11	-21.80902
356.328	4.13803
356.547	5.26506
356.765	67.27999
356.984	19.92932
357.202	69.59703
357.42	70.6887
357.639	36.86115
357.857	8.6479
358.076	-8.27655
358.294	-6.01628
358.512	-25.19659
358.731	-55.65712
358.949	-10.52565
359.167	36.83126
359.386	-22.95085
359.604	10.90051
359.822	24.45013
360.04	21.05862
360.259	-8.27111
360.477	51.52741
360.695	-10.52809
360.913	-37.6105
361.131	-28.58177
361.35	-4.89097
361.568	40.24402
361.786	-22.94818
362.004	-1.50349
362.222	72.95037
362.44	-7.14227
362.658	61.69083
362.876	-39.86251
363.094	-29.72784
363.312	35.72652
363.53	33.47788
363.749	-34.21431
363.967	27.80707
364.184	18.80743
364.402	7.52414
364.62	41.36676
364.838	-47.74045
365.056	22.1975
365.274	13.15681
365.492	4.13723
365.71	18.81691
365.928	-25.19465
366.146	39.14072
366.364	-51.13449
366.581	0.75227
366.799	31.19803
367.017	-7.14309
367.235	-33.0934
367.453	-20.68937
367.67	37.97706
367.888	13.16698
368.106	34.603
368.323	-31.97202
368.541	67.29037
368.759	5.26567
368.977	0.75259
369.194	-57.8956
369.412	35.75007
369.629	58.33589
369.847	-9.39953
370.065	-24.09596
370.282	18.80743
370.5	0.75241
370.717	17.66567
370.935	-0.37616
371.152	53.79034
371.37	9.77721
371.588	-1.50366
371.805	19.94787
372.022	3.00791
372.24	63.94534
372.457	-20.68217
372.675	34.58829
372.892	25.59697
373.11	26.71328
373.327	39.10736
373.544	-6.02446
373.762	3.00675
373.979	-44.36668
374.196	52.64862
374.414	74.10284
374.631	5.26567
374.848	75.2153
375.066	23.29692
375.283	3.00919
375.5	-42.14009
375.717	-16.17408
375.935	30.10123
376.152	14.28812
376.369	57.16579
376.586	-17.30418
376.803	-47.75889
377.02	15.42777
377.238	7.52093
377.455	6.40086
377.672	-27.46045
377.889	62.84247
378.106	18.80379
378.323	54.93478
378.54	17.68001
378.757	-1.50378
378.974	6.39614
379.191	17.66499
379.408	7.51977
379.625	26.7195
379.842	7.52501
380.059	34.60166
380.276	62.81811
380.493	22.18461
380.71	14.29365
380.927	24.46437
381.143	3.00907
381.36	45.89549
381.577	-12.78509
381.794	-16.17721
382.011	39.09981
382.228	-1.50372
382.444	-52.23928
382.661	41.37636
382.878	6.39638
383.095	10.90852
383.311	34.62179
383.528	10.90683
383.745	41.36036
383.962	37.9668
384.178	-28.57293
384.395	4.13852
384.612	88.76786
384.828	-39.84097
385.045	-8.27655
385.261	25.55737
385.478	24.47103
385.695	-21.82254
385.911	-8.27207
386.128	-18.42878
386.344	68.52832
386.561	30.11995
386.777	-17.30016
386.994	-2.62994
387.21	-28.57956
387.427	26.69159
387.643	23.33842
387.86	0.75204
388.076	3.00861
388.292	-7.14724
388.509	4.1398
388.725	44.7782
388.942	-3.76529
389.158	74.10284
389.374	4.13691
389.591	-7.14364
389.807	-3.76119
390.023	-39.85327
390.239	-21.79557
390.456	16.54926
390.672	25.56131
390.888	78.53483
391.104	50.36114
391.321	12.02978
391.537	53.79242
391.753	21.05049
391.969	9.77835
392.185	8.65628
392.401	-48.90314
392.618	8.64423
392.834	23.32121
393.05	22.19062
393.266	16.55118
393.482	7.52035
393.698	22.20439
393.914	0.75247
394.13	34.58162
394.346	-35.34567
394.562	-15.04187
394.778	35.7279
394.994	27.84147
395.21	-29.69565
395.426	32.33128
395.642	25.57514
395.858	42.50399
396.073	38.01387
396.289	-62.45284
396.505	-30.85615
396.721	25.57019
396.937	-15.04129
397.153	50.3864
397.369	21.05699
397.584	76.40721
397.8	-0.37595
398.016	39.10132
398.232	6.39465
398.447	-16.15972
398.663	-11.65722
398.879	22.1752
399.094	-21.82847
399.31	-38.73807
399.526	14.28261
399.741	63.89595
399.957	-2.63299
400.173	60.59642
400.388	3.00907
400.604	42.48591
400.82	-4.88965
401.035	21.07331
401.251	34.57629
401.466	57.1393
401.682	44.76257
401.897	-65.83757
402.113	-61.27793
402.328	14.30865
402.544	-28.56742
402.759	19.93549
402.974	24.45013
403.19	30.05708
403.405	1.88049
403.621	56.04077
403.836	-1.50535
404.051	7.52122
404.267	6.39812
404.482	13.16393
404.697	8.6546
404.913	41.37476
405.128	13.16801
405.343	1.88049
405.559	56.02127
405.774	41.35717
405.989	-37.58727
406.204	14.29919
406.42	4.13884
406.635	61.68844
406.85	-0.37578
407.065	17.66635
407.28	34.61238
407.495	31.20887
407.71	0.75224
407.926	14.29475
408.141	28.97749
408.356	17.67933
408.571	16.56081
408.786	23.32573
409.001	-24.07258
409.216	13.15579
409.431	37.99912
409.646	12.03442
409.861	44.76431
410.076	0.75169
410.291	16.54606
410.506	34.60702
410.721	8.64891
410.936	10.90979
411.15	-9.39555
411.365	6.39242
411.58	25.57118
411.795	9.77005
412.01	8.65561
412.225	-15.04071
412.439	12.03163
412.654	3.00768
412.869	42.45972
413.084	19.93163
413.299	49.26882
413.513	65.08009
413.728	23.3122
413.943	13.15782
414.157	0.7525
414.372	30.05592
414.587	21.05292
414.801	34.55767
415.016	10.91614
415.231	30.11175
415.445	67.32418
415.66	13.16189
415.874	-30.8275
416.089	50.37279
416.304	44.81654
416.518	-0.37608
416.733	0.75186
416.947	-17.3082
417.162	-3.76119
417.376	39.08474
417.59	17.67181
417.805	7.52414
418.019	52.64252
418.234	8.65058
418.448	16.53712
418.663	49.26882
418.877	22.15051
419.091	26.68953
419.306	35.7141
419.52	-6.01675
419.734	-15.05587
419.949	-11.646
420.163	16.55054
420.377	-24.07444
420.591	12.02746
420.806	1.88027
421.02	32.36761
421.234	25.56525
421.448	-28.56962
421.663	65.10282
421.877	-9.38905
422.091	32.33628
422.305	-10.53338
422.519	53.77577
422.733	24.46627
422.947	-21.80229
423.161	14.2815
423.376	43.62144
423.59	9.7693
423.804	40.23157
424.018	23.3122
424.232	9.76967
424.446	10.89925
424.66	33.44429
424.874	42.48263
425.088	-6.02399
425.302	-38.70967
425.515	45.86178
425.729	4.1334
425.943	76.34501
426.157	12.03722
426.371	-12.78411
426.585	-11.65182
426.799	35.67429
427.013	25.56822
427.226	13.15528
427.44	-40.96776
427.654	8.64924
427.868	17.65548
428.081	16.54094
428.295	31.20164
428.509	40.25181
428.723	34.58028
428.936	-33.03996
429.15	51.50551
429.364	4.13755
429.577	61.66697
429.791	-13.89899
430.005	22.17776
430.218	14.2942
430.432	43.59452
430.645	-2.63207
430.859	37.97706
431.073	-15.04303
431.286	45.89016
431.5	27.81565
431.713	5.261
431.927	22.17691
432.14	-0.37621
432.354	58.239
432.567	42.49577
432.781	26.70293
432.994	43.64171
433.207	-17.2888
433.421	-22.92602
433.634	52.67105
433.848	33.43657
434.061	1.88209
434.274	27.81136
434.488	6.39391
434.701	37.94196
434.914	44.74699
435.127	24.45582
435.341	43.63664
435.554	42.48427
435.767	57.2057
435.98	22.17691
436.194	-4.8855
436.407	44.77298
436.62	42.49412
436.833	46.99951
437.046	68.4221
437.259	52.63438
437.473	31.20405
437.686	52.65473
437.899	50.37862
438.112	-0.37588
438.325	40.21761
438.538	35.70722
438.751	54.86898
438.964	-89.32412
439.177	45.82826
439.39	28.94052
439.603	54.95612
439.816	72.89694
440.029	40.23313
440.242	28.9394
440.455	19.92086
440.668	67.28777
440.881	87.65133
441.094	47.01587
441.306	80.85178
441.519	42.49412
441.732	30.07909
441.945	85.3315
442.158	48.13215
442.37	88.70957
442.583	33.47399
442.796	60.52839
443.009	36.84547
443.222	65.04235
443.434	33.4727
443.647	3.00861
443.86	57.11948
444.072	63.89103
444.285	61.65982
444.498	58.25918
444.71	49.27455
444.923	81.9657
445.136	25.56525
445.348	49.24599
445.561	22.17093
445.773	106.84731
445.986	21.07085
446.198	25.55245
446.411	48.12657
446.623	5.26282
446.836	52.60599
447.048	48.11914
447.261	71.7987
447.473	26.67514
447.686	23.28797
447.898	0.75177
448.11	49.27264
448.323	-4.87652
448.535	45.8353
448.748	-16.16221
448.96	27.82101
449.172	137.15473
449.385	-6.01466
449.597	31.22942
449.809	83.03764
450.021	34.59631
450.234	96.59396
450.446	43.57106
450.658	61.61944
450.87	55.97597
451.083	67.25926
451.295	54.83735
451.507	73.97732
451.719	65.0524
451.931	71.80978
452.143	42.48591
452.356	79.64528
452.568	67.29556
452.78	13.15073
452.992	8.64124
453.204	61.61944
453.416	92.17988
453.628	71.84311
453.84	17.65751
454.052	85.29206
454.264	78.51973
454.476	36.81851
454.688	78.51369
454.9	98.85671
455.112	86.33151
455.324	80.82056
455.536	89.85978
455.747	32.32879
455.959	66.05473
456.171	-1.50256
456.383	98.85671
456.595	103.33149
456.807	69.48439
457.018	78.51369
457.23	39.0983
457.442	55.9932
457.654	43.61302
457.865	98.7769
458.077	32.3238
458.289	23.29782
458.501	72.88292
458.712	119.05826
458.924	98.82245
459.136	-3.75583
459.347	71.83477
459.559	48.10801
459.77	78.50766
459.982	63.92061
460.194	43.59452
460.405	23.28797
460.617	28.93383
460.828	100.99553
461.04	26.68233
461.251	4.13293
461.463	21.03106
461.674	96.57164
461.886	59.3218
462.097	60.50273
462.309	49.16852
462.52	48.11172
462.731	71.77657
462.943	102.23769
463.154	99.92089
463.366	44.66794
463.577	93.12713
463.788	13.14467
464	75.09956
464.211	92.03412
464.422	101.05365
464.634	107.87376
464.845	70.6044
465.056	120.33089
465.267	42.42713
465.478	93.18077
465.69	87.50951
465.901	97.64454
466.112	117.96096
466.323	141.60954
466.534	137.11782
466.745	53.66432
466.957	125.86224
467.168	87.50615
467.379	79.67286
467.59	102.15124
467.801	32.29771
468.012	50.30317
468.223	107.82395
468.434	89.79401
468.645	143.88541
468.856	71.68852
469.067	68.38783
469.278	134.69871
469.489	113.43542
469.7	67.21537
469.911	125.75129
470.122	113.4703
470.333	141.58238
470.543	137.18114
470.754	106.60486
470.965	140.42073
471.176	170.91517
471.387	137.08097
471.598	129.06318
471.808	133.65731
472.019	147.07786
472.23	100.96849
472.441	150.41172
472.651	143.85226
472.862	141.65309
473.073	93.09148
473.283	125.7561
473.494	96.46798
473.705	241.53895
473.915	124.6323
474.126	111.09659
474.337	74.00571
474.547	167.28159
474.758	188.57155
474.968	136.84062
475.179	178.50002
475.389	136.81986
475.6	96.35414
475.81	156.02334
476.021	181.87855
476.231	193.17313
476.442	148.20064
476.652	193.20992
476.863	109.94751
477.073	159.32324
477.284	101.99538
477.494	154.83637
477.704	124.54195
477.915	236.92103
478.125	175.28185
478.335	213.28291
478.546	234.5119
478.756	239.03459
478.966	157.09181
479.177	245.86249
479.387	171.67819
479.597	206.44965
479.807	178.42551
480.018	251.48935
480.228	249.14619
480.438	271.54461
480.648	278.51837
480.858	199.42728
481.068	204.30202
481.279	251.31831
481.489	264.72268
481.699	262.48587
481.909	214.57452
482.119	331.99994
482.329	255.67821
482.539	288.16686
482.749	315.13773
482.959	291.37692
483.169	224.15625
483.379	338.4208
483.589	321.74238
483.799	263.65395
484.009	309.79723
484.219	289.3168
484.429	327.40977
484.639	394.8284
484.849	369.83503
485.059	373.12429
485.268	321.40632
485.478	421.77719
485.688	306.05128
485.898	384.37023
486.108	333.01669
486.317	401.05556
486.527	353.75902
486.737	379.6003
486.947	378.55668
487.156	452.18931
487.366	306.83568
487.576	333.78374
487.785	302.38435
487.995	362.64453
488.205	402.22942
488.414	473.83642
488.624	361.03493
488.834	444.6682
489.043	406.64004
489.253	412.63479
489.462	391.99663
489.672	450.18206
489.882	405.49603
490.091	506.6862
490.301	449.4876
490.51	517.21044
490.72	383.16984
490.929	440.48225
491.138	412.11668
491.348	472.30357
491.557	460.26201
491.767	469.88953
491.976	469.71648
492.185	413.0768
492.395	399.52626
492.604	489.47105
492.813	390.83915
493.023	474.4214
493.232	373.01311
493.441	416.19996
493.651	425.47432
493.86	482.50193
494.069	479.90622
494.278	523.48892
494.488	467.87445
494.697	509.77313
494.906	446.23341
495.115	506.85425
495.324	526.56698
495.533	502.18961
495.743	492.74557
495.952	552.2329
496.161	512.29329
496.37	535.65648
496.579	586.67132
496.788	548.98706
496.997	589.12379
497.206	543.38168
497.415	490.15537
497.624	586.54273
497.833	507.92733
498.042	587.71458
498.251	507.20099
498.46	545.57976
498.669	589.56422
498.878	579.13823
499.087	533.39834
499.296	594.12096
499.504	497.18269
499.713	620.36122
499.922	547.91827
500.131	641.10442
500.34	567.29581
500.549	613.83881
500.757	613.37975
500.966	646.9509
501.175	607.07009
501.384	641.21994
501.592	537.70908
501.801	629.79747
502.01	597.74654
502.218	639.82119
502.427	619.39005
502.636	581.47727
502.844	596.39986
503.053	628.73705
503.262	576.2794
503.47	569.78043
503.679	597.1377
503.887	679.88185
504.096	529.79766
504.304	617.92037
504.513	542.193
504.721	644.47913
504.93	573.85587
505.138	604.08168
505.347	581.00483
505.555	609.83599
505.764	595.48831
505.972	587.13706
506.18	526.06651
506.389	652.12643
506.597	490.2404
506.806	635.79104
507.014	566.43621
507.222	646.40917
507.431	580.89879
507.639	627.63075
507.847	584.58416
508.055	641.42826
508.264	552.25315
508.472	571.97505
508.68	530.03092
508.888	620.49602
509.096	578.78941
509.305	602.8217
509.513	531.7822
509.721	516.2598
509.929	552.07114
510.137	549.87431
510.345	589.67151
510.553	606.25068
510.762	576.95406
510.97	555.17316
511.178	555.77553
511.386	640.13845
511.594	548.82604
511.802	623.94869
512.01	587.58587
512.218	731.20197
512.426	535.18562
512.634	673.20225
512.842	621.08273
513.049	600.08707
513.257	594.51128
513.465	639.07991
513.673	566.08541
513.881	617.49253
514.089	614.05436
514.297	564.59225
514.504	641.51173
514.712	627.19778
514.92	560.85543
515.128	667.67602
515.336	583.00741
515.543	607.20273
515.751	523.8689
515.959	538.31457
516.166	585.49938
516.374	622.84284
516.582	540.88585
516.789	526.14328
516.997	511.5431
517.205	568.21717
517.412	553.4228
517.62	555.57932
517.827	565.82544
518.035	538.41271
518.243	497.63847
518.45	516.46783
518.658	515.35837
518.865	518.23172
519.073	529.64258
519.28	530.75127
519.488	479.13146
519.695	553.30108
519.902	548.54509
520.11	541.54186
520.317	555.64044
520.525	535.61713
520.732	481.07025
520.939	505.27886
521.147	468.74377
521.354	522.03365
521.561	478.84829
521.769	551.24547
521.976	446.34847
522.183	564.11744
522.391	485.13904
522.598	503.68983
522.805	471.33153
523.012	528.88257
523.219	472.05961
523.427	493.9814
523.634	377.31633
523.841	510.2422
524.048	410.97277
524.255	473.41507
524.462	401.6481
524.669	433.03932
524.877	462.58975
525.084	456.6201
525.291	500.63823
525.498	520.21643
525.705	493.3246
525.912	466.40112
526.119	415.48748
526.326	476.43307
526.533	470.02831
526.74	583.07115
526.947	461.66848
527.153	447.75759
527.36	491.10333
527.567	484.18901
527.774	469.17726
527.981	585.69215
528.188	502.0235
528.395	524.21371
528.602	468.62292
528.808	519.83407
529.015	416.74526
529.222	515.37728
529.429	345.72801
529.635	537.67794
529.842	479.72962
530.049	571.99593
530.256	501.3195
530.462	534.70437
530.669	513.57368
530.876	527.85069
531.082	580.64221
531.289	473.89831
531.495	493.21564
531.702	521.17307
531.909	503.33688
532.115	469.94154
532.322	405.43573
532.528	528.39871
532.735	523.18127
532.941	564.61296
533.148	529.75886
533.354	574.88479
533.561	506.09908
533.767	515.16962
533.974	473.06607
534.18	546.60855
534.387	504.59584
534.593	489.97459
534.799	443.14456
535.006	563.23596
535.212	450.62839
535.418	550.88208
535.625	488.33091
535.831	563.50427
536.037	439.6624
536.244	482.8659
536.45	478.65433
536.656	523.46965
536.862	513.46011
537.068	511.3716
537.275	493.08875
537.481	521.78531
537.687	503.11491
537.893	624.20992
538.099	486.3382
538.305	526.33555
538.512	438.29241
538.718	586.2862
538.924	498.63871
539.13	516.85982
539.336	494.67236
539.542	534.23339
539.748	540.80674
539.954	507.5725
540.16	514.28662
540.366	544.13199
540.572	495.47274
540.778	535.36183
540.984	473.93305
541.19	629.4726
541.396	510.92018
541.602	588.28629
541.807	539.52118
542.013	604.78784
542.219	594.64182
542.425	558.55782
542.631	551.84928
542.837	546.28878
543.042	561.77895
543.248	618.85331
543.454	550.60069
543.66	612.09404
543.865	530.79008
544.071	646.3857
544.277	522.14856
544.483	620.6761
544.688	579.60111
544.894	661.86044
545.1	672.86064
545.305	738.07574
545.511	726.708
545.716	707.11191
545.922	630.05885
546.128	721.32473
546.333	820.06709
546.539	854.65702
546.744	838.0239
546.95	921.96099
547.155	898.89381
547.361	968.28785
547.566	935.0086
547.772	1074.60018
547.977	1085.85519
548.182	1190.8411
548.388	1176.21549
548.593	1319.71805
548.799	1330.66864
549.004	1511.32589
549.209	1617.75134
549.415	1733.1964
549.62	1770.24184
549.825	1819.88014
550.031	1934.95062
550.236	2125.44937
550.441	2276.91381
550.646	2483.80223
550.852	2695.58169
551.057	2817.09111
551.262	2952.98225
551.467	3134.01729
551.672	3276.63116
551.878	3580.23639
552.083	3771.97444
552.288	4136.16109
552.493	4346.048
552.698	4594.14271
552.903	4973.63243
553.108	5384.16174
553.313	5610.85791
553.518	6064.72284
553.723	6376.17982
553.928	6812.18155
554.133	7162.54096
554.338	7635.23593
554.543	7989.74641
554.748	8478.85353
554.953	8930.35703
555.158	9459.38959
555.363	9848.34424
555.568	10293.02093
555.773	10776.77201
555.978	11309.25957
556.182	11605.0382
556.387	12093.96441
556.592	12479.89193
556.797	13031.23852
557.002	13435.23863
557.206	13682.58769
557.411	14117.82746
557.616	14598.59424
557.821	15217.53439
558.025	15438.48489
558.23	15790.56422
558.435	16173.95253
558.64	16597.8294
558.844	17028.29686
559.049	17241.84701
559.253	17747.8982
559.458	17881.62891
559.663	18180.2031
559.867	18454.55023
560.072	18682.68051
560.276	18835.72008
560.481	19338.53091
560.685	19472.15749
560.89	19563.57493
561.094	19916.84355
561.299	20056.33513
561.503	20286.1051
561.708	20537.86978
561.912	20732.91552
562.117	20540.6181
562.321	20821.24171
562.525	20985.17171
562.73	21172.24958
562.934	21222.35566
563.139	21272.71629
563.343	21403.17908
563.547	21255.69786
563.752	21524.97256
563.956	21432.00417
564.16	21764.93628
564.364	21419.57288
564.569	21630.10563
564.773	21583.14763
564.977	21487.47365
565.181	21694.3166
565.385	21639.88002
565.59	21750.04348
565.794	21625.21259
565.998	21480.97741
566.202	21734.02195
566.406	21787.30302
566.61	21554.15254
566.814	21569.28174
567.018	21554.17215
567.222	21542.01017
567.426	21360.7622
567.63	21505.11182
567.834	21637.22326
568.038	21627.9276
568.242	21480.41064
568.446	21558.26789
568.65	21656.01253
568.854	21464.2427
569.058	21529.99529
569.262	21518.85434
569.466	21536.48388
569.67	21502.04576
569.874	21226.99342
570.078	21433.92161
570.281	21177.2117
570.485	21250.22844
570.689	21397.80527
570.893	21217.14591
571.097	21266.17925
571.3	20929.73811
571.504	21039.96751
571.708	21039.47833
571.912	21074.17802
572.115	20818.15442
572.319	20710.09588
572.523	20902.99459
572.726	20922.55143
572.93	20683.28193
573.133	20904.91583
573.337	20606.53675
573.541	20539.54339
573.744	20487.91894
573.948	20600.11927
574.151	20575.03758
574.355	20540.10724
574.558	20395.48098
574.762	20560.79184
574.965	20341.55594
575.169	20387.62657
575.372	20353.90325
575.576	20476.04008
575.779	20362.54509
575.983	20524.76825
576.186	20274.3949
576.389	20516.9368
576.593	20229.14291
576.796	20416.98054
577	20267.20706
577.203	20162.70715
577.406	20167.63098
577.609	20270.16132
577.813	20152.4476
578.016	20226.95003
578.219	20344.73867
578.423	20180.25079
578.626	20070.46807
578.829	20105.22279
579.032	19996.86446
579.235	20208.51905
579.438	20276.18801
579.642	20043.71687
579.845	19905.32649
580.048	20021.61187
580.251	19956.83614
580.454	20262.8125
580.657	19954.05009
580.86	20215.29296
581.063	19616.23071
581.266	20031.42934
581.469	20172.01826
581.672	19886.72974
581.875	19988.89502
582.078	19898.03786
582.281	19863.26107
582.484	19812.0432
582.687	20034.02301
582.89	20182.89398
583.093	19900.47732
583.296	19835.12505
583.499	20301.40786
583.702	20014.09439
583.904	19765.58265
584.107	19884.35568
584.31	19882.70868
584.513	19784.29267
584.716	19796.63608
584.918	19941.69007
585.121	19868.85395
585.324	19861.57673
585.527	19634.2693
585.729	19894.49835
585.932	19824.25473
586.135	19720.77737
586.337	19640.85512
586.54	19705.85749
586.743	19734.70727
586.945	19519.8997
587.148	19804.6371
587.35	19579.28694
587.553	19562.0871
587.755	19606.98516
587.958	19499.11825
588.161	19526.32109
588.363	19382.13546
588.566	19508.90329
588.768	19577.98672
588.971	19647.89338
589.173	19449.28323
589.375	19392.39085
589.578	19196.54198
589.78	19294.89811
589.983	19154.12142
590.185	19378.10856
590.387	19178.68635
590.59	18994.56463
590.792	19042.34714
590.994	18747.10863
591.197	18657.2051
591.399	18559.70926
591.601	18661.8806
591.803	18479.95327
592.006	18563.83504
592.208	18435.34749
592.41	18527.48105
592.612	18433.12932
592.815	18264.75162
593.017	18312.69509
593.219	18004.49062
593.421	18240.25358
593.623	18083.85542
593.825	17999.06786
594.027	18106.23782
594.229	18091.44453
594.432	17996.63331
594.634	18099.13551
594.836	17892.84322
595.038	17984.21595
595.24	17745.84833
595.442	17837.47872
595.644	17733.70007
595.846	17680.0915
596.048	17678.59568
596.249	17535.28702
596.451	17370.96113
596.653	17585.27098
596.855	17336.4522
597.057	17381.96819
597.259	17323.43697
597.461	17383.57464
597.663	17274.54265
597.864	17326.38555
598.066	17411.56244
598.268	17345.52091
598.47	17088.23139
598.671	17187.08372
598.873	17175.86567
599.075	17255.7992
599.277	17222.6576
599.478	17150.64113
599.68	17110.6937
599.882	17345.26121
600.083	17153.55328
600.285	16940.76579
600.487	16984.72423
600.688	17135.33382
600.89	16922.51178
601.091	17037.74761
601.293	16960.28399
601.494	17056.07504
601.696	16949.47538
601.898	16848.18084
602.099	16814.61121
602.301	16869.55259
602.502	16960.54596
602.703	16990.20871
602.905	16669.93496
603.106	16963.65908
603.308	16828.6799
603.509	16857.86549
603.711	16626.56673
603.912	16684.34401
604.113	16617.77123
604.315	16720.86517
604.516	16621.86447
604.717	16483.04174
604.919	16439.43912
605.12	16396.04943
605.321	16662.33301
605.522	16716.04707
605.724	16586.02718
605.925	16491.72635
606.126	16550.02256
606.327	16775.54258
606.528	16609.58322
606.729	16452.63973
606.931	16535.84044
607.132	16639.32811
607.333	16396.89033
607.534	16432.29395
607.735	16413.49821
607.936	16538.11317
608.137	16522.68846
608.338	16475.51242
608.539	16420.9711
608.74	16422.34915
608.941	16390.35865
609.142	16490.10193
609.343	16443.39179
609.544	16491.30606
609.745	16394.7651
609.946	16525.15238
610.147	16339.39782
610.348	16390.89007
610.549	16384.74268
610.75	16332.61396
610.95	16387.97622
611.151	16267.203
611.352	16222.38894
611.553	16295.33874
611.754	16344.66175
611.954	16329.29824
612.155	16156.89302
612.356	16404.33912
612.557	16112.16797
612.757	16323.59816
612.958	16162.84759
613.159	16195.6541
613.359	16269.89227
613.56	16280.21297
613.761	16326.61477
613.961	16171.5617
614.162	16227.99159
614.362	16209.16881
614.563	16365.12385
614.764	16265.86523
614.964	16040.42384
615.165	16212.57086
615.365	16268.82594
615.566	15925.85405
615.766	16026.74884
615.967	16142.28378
616.167	15925.11421
616.368	15716.39557
616.568	16033.56098
616.768	15795.08648
616.969	16055.44053
617.169	16034.64791
617.37	15841.17386
617.57	15861.494
617.77	15808.6568
617.971	15858.83269
618.171	15796.80722
618.371	15877.26466
618.571	15684.74655
618.772	15908.17789
618.972	15663.40476
619.172	15589.97145
619.372	15524.04983
619.573	15370.37649
619.773	15567.35459
619.973	15619.52101
620.173	15612.54941
620.373	15469.67974
620.573	15555.44915
620.774	15258.8094
620.974	15198.28769
621.174	15408.67637
621.374	15295.3105
621.574	15384.58065
621.774	15269.43103
621.974	15135.47202
622.174	15254.37941
622.374	15230.8914
622.574	15052.6355
622.774	15108.17207
622.974	15049.32074
623.174	15308.9161
623.374	15135.51014
623.574	15100.08357
623.774	15046.39883
623.973	15191.11865
624.173	15010.85684
624.373	14957.04395
624.573	14854.09611
624.773	14879.99125
624.973	14852.81419
625.172	15026.61866
625.372	14723.68808
625.572	14794.32345
625.772	14623.5376
625.971	14641.52408
626.171	14732.56704
626.371	14744.79108
626.57	14587.94519
626.77	14751.14229
626.97	14665.53176
627.169	14580.10294
627.369	14538.0798
627.569	14803.16493
627.768	14290.24811
627.968	14331.47436
628.167	14357.62137
628.367	14428.8981
628.566	14189.13442
628.766	14353.48456
628.965	14241.20539
629.165	14465.77826
629.364	14263.86022
629.564	14149.28384
629.763	14214.81805
629.963	14123.0683
630.162	14160.1165
630.362	14228.90214
630.561	14118.37487
630.76	13955.41917
630.96	13956.30883
631.159	14057.19467
631.358	14016.34743
631.558	13893.54103
631.757	13778.82648
631.956	13874.72764
632.155	13625.30973
632.355	13933.67106
632.554	13747.49839
632.753	13656.27193
632.952	13551.30352
633.152	13611.85093
633.351	13600.33622
633.55	13732.57393
633.749	13480.62525
633.948	13823.6399
634.147	13651.2487
634.346	13421.525
634.545	13472.82312
634.744	13434.48023
634.944	13331.31795
635.143	13496.02546
635.342	13259.58805
635.541	13529.63567
635.74	13320.81736
635.939	13362.37856
636.138	13464.77737
636.336	13295.83202
636.535	13238.85918
636.734	13345.72914
636.933	13393.84541
637.132	13361.52085
637.331	13304.79149
637.53	13329.32995
637.729	13290.1881
637.928	13451.05253
638.126	13241.36085
638.325	13197.92298
638.524	13346.48642
638.723	13172.43258
638.921	13254.1631
639.12	13273.57601
639.319	13375.78465
639.518	13324.86802
639.716	13239.53988
639.915	13165.96525
640.114	13257.46991
640.312	13511.33173
640.511	13277.68469
640.71	13320.93231
640.908	13213.9888
641.107	13160.70496
641.305	13240.07958
641.504	13215.526
641.702	13252.2709
641.901	13189.04738
642.099	13180.49305
642.298	13131.28302
642.496	13110.6503
642.695	12882.29919
642.893	13145.82523
643.092	13204.60212
643.29	13073.923
643.489	13005.50435
643.687	13117.22331
643.885	13034.116
644.084	13002.87249
644.282	13075.14539
644.48	13045.03833
644.679	13140.09571
644.877	12867.41335
645.075	12931.27157
645.274	12809.19698
645.472	12981.05236
645.67	12860.38099
645.868	12821.47695
646.067	12807.496
646.265	12915.20277
646.463	12809.5578
646.661	12829.50422
646.859	12827.65584
647.057	12657.4174
647.256	12823.1979
647.454	12798.00397
647.652	12726.09174
647.85	12758.40133
648.048	12708.46065
648.246	12717.02195
648.444	12505.57958
648.642	12461.98824
648.84	12413.13029
649.038	12683.99178
649.236	12503.97824
649.434	12398.06821
649.632	12328.49767
649.83	12449.28675
650.028	12057.73597
650.226	12307.40116
650.423	12303.799
650.621	12227.47838
650.819	12099.78029
651.017	12272.18293
651.215	12096.63313
651.413	11916.58347
651.61	12066.80901
651.808	11972.42159
652.006	11911.66898
652.204	12008.61278
652.401	12048.02085
652.599	11951.31997
652.797	11876.91657
652.995	11852.73985
653.192	11694.67622
653.39	11837.10174
653.588	11872.4036
653.785	11595.62851
653.983	11504.10989
654.18	11609.94375
654.378	11493.41986
654.576	11635.41872
654.773	11361.67512
654.971	11672.79554
655.168	11384.41686
655.366	11573.79786
655.563	11419.60674
655.761	11533.60014
655.958	11361.82069
656.156	11607.5442
656.353	11471.14553
656.55	11366.7022
656.748	11426.92528
656.945	11258.78255
657.143	11232.55774
657.34	11174.00526
657.537	11110.38016
657.735	11184.81265
657.932	10980.90844
658.129	11047.69178
658.326	10754.0827
658.524	10941.62548
658.721	10921.17248
658.918	10809.25627
659.115	10683.16863
659.313	10890.88341
659.51	10676.24333
659.707	10794.04045
659.904	10647.69257
660.101	10805.57712
660.298	10795.23715
660.496	10569.46125
660.693	10613.84792
660.89	10700.52287
661.087	10561.63815
661.284	10522.80052
661.481	10545.65869
661.678	10588.24286
661.875	10539.30031
662.072	10499.05479
662.269	10612.13652
662.466	10505.75209
662.663	10449.74721
662.86	10502.60978
663.057	10402.68809
663.254	10472.58488
663.45	10453.13515
663.647	10394.13742
663.844	10406.31243
664.041	10326.17337
664.238	10307.02138
664.435	10291.91792
664.631	10262.18039
664.828	10362.2354
665.025	10327.53374
665.222	10445.12431
665.419	10390.05586
665.615	10322.63525
665.812	10404.70872
666.009	10501.75479
666.205	10433.74305
666.402	10352.67332
666.599	10444.37634
666.795	10309.74324
666.992	10311.90358
667.188	10337.61272
667.385	10381.04695
667.582	10446.9959
667.778	10436.40456
667.975	10481.59072
668.171	10368.76918
668.368	10370.78264
668.564	10401.11442
668.761	10401.93492
668.957	10453.94573
669.154	10400.30146
669.35	10311.28147
669.547	10426.5264
669.743	10362.67875
669.939	10468.09749
670.136	10391.40581
670.332	10276.3735
670.528	10156.74461
670.725	10336.65547
670.921	10178.87411
671.117	10238.24147
671.314	10244.71449
671.51	10250.41718
671.706	10198.13003
671.902	10180.37414
672.099	10248.83976
672.295	10258.7949
672.491	10100.72444
672.687	10039.13093
672.883	10094.67213
673.08	10119.09282
673.276	10175.51832
673.472	10091.50196
673.668	9933.13875
673.864	10030.75067
674.06	9939.32791
674.256	10024.84035
674.452	9863.70463
674.648	9881.25006
674.844	9856.93544
675.04	9902.38978
675.236	9818.72185
675.432	9827.08074
675.628	9723.50664
675.824	9705.49312
676.02	9776.20251
676.216	9792.92991
676.412	9654.58742
676.608	9701.05031
676.804	9632.77742
676.999	9725.95343
677.195	9471.63331
677.391	9631.04965
677.587	9472.21977
677.783	9620.42252
677.978	9569.46946
678.174	9695.40121
678.37	9521.56235
678.566	9578.3993
678.761	9289.89292
678.957	9522.9163
679.153	9317.13995
679.348	9539.11931
679.544	9402.75679
679.74	9504.33476
679.935	9363.51453
680.131	9462.98575
680.327	9329.86169
680.522	9257.41006
680.718	9308.77625
680.913	9353.78379
681.109	9307.00268
681.304	9357.07224
681.5	9110.62571
681.695	9161.25501
681.891	9176.28042
682.086	9226.49263
682.282	9223.6111
682.477	8889.53466
682.672	9203.42058
682.868	9103.77127
683.063	9115.99419
683.259	9147.13006
683.454	9027.94974
683.649	9021.80887
683.845	8880.39138
684.04	8995.09309
684.235	8971.70872
684.43	9061.25452
684.626	8943.95942
684.821	9008.49272
685.016	8806.69932
685.211	8828.46222
685.407	8773.44007
685.602	8819.9694
685.797	8609.83256
685.992	8761.50082
686.187	8936.58657
686.382	8835.3277
686.577	8731.90668
686.773	8811.81639
686.968	8574.29404
687.163	8698.37932
687.358	8647.74876
687.553	8629.11352
687.748	8609.21138
687.943	8549.76952
688.138	8521.11095
688.333	8520.9462
688.528	8528.11953
688.723	8303.86685
688.918	8265.3636
689.112	8326.67846
689.307	8194.47061
689.502	8134.25863
689.697	8160.47423
689.892	8209.41299
690.087	8059.68515
690.282	8003.15153
690.476	7894.44117
690.671	7896.09729
690.866	7823.46473
691.061	7937.1977
691.255	7628.91736
691.45	7791.26598
691.645	7733.80967
691.84	7685.71204
692.034	7700.19573
692.229	7604.60132
692.424	7527.70809
692.618	7644.78218
692.813	7395.45535
693.007	7404.25613
693.202	7465.91148
693.397	7529.07792
693.591	7278.40399
693.786	7413.4955
693.98	7248.54137
694.175	7470.68282
694.369	7275.00928
694.564	7330.69712
694.758	7199.18942
694.953	7110.75708
695.147	7261.6549
695.342	7238.34611
695.536	7152.94543
695.73	7197.6727
695.925	7184.25272
696.119	7080.73503
696.313	6982.1524
696.508	7198.31779
696.702	7105.16754
696.896	7003.78461
697.091	7093.3609
697.285	7167.01514
697.479	7020.48645
697.673	7096.13636
697.868	6932.44899
698.062	7191.03033
698.256	6912.3832
698.45	7187.72616
698.644	7089.00731
698.839	7164.06368
699.033	7079.17839
699.227	7279.34776
699.421	7039.98681
699.615	7192.77355
699.809	7090.94037
700.003	7239.6868
700.197	7011.72181
700.391	7177.43258
700.585	7125.92875
700.779	7149.933
700.973	7117.26541
701.167	6981.92462
701.361	7241.77651
701.555	7166.53568
701.749	7021.80661
701.943	7168.61869
702.137	7049.4951
702.331	7048.40033
702.525	7030.57929
702.718	7137.96173
702.912	7031.69738
703.106	7153.47781
703.3	7066.02462
703.494	7062.94086
703.687	7076.41398
703.881	7009.94279
704.075	7003.20488
704.269	6967.71841
704.462	6953.94076
704.656	6908.42325
704.85	6927.00203
705.043	6978.12084
705.237	6875.51408
705.431	6958.29157
705.624	6920.45672
705.818	6953.45024
706.012	6905.77671
706.205	6951.09518
706.399	6872.94307
706.592	7052.86126
706.786	6861.79014
706.979	6950.4224
707.173	6770.74003
707.366	6929.32692
707.56	6698.38738
707.753	6848.57907
707.947	6871.12657
708.14	6720.0839
708.333	6683.98634
708.527	6805.1379
708.72	6702.35181
708.914	6777.01474
709.107	6682.77441
709.3	6793.89211
709.494	6698.41087
709.687	6616.25092
709.88	6805.30609
710.073	6679.27709
710.267	6637.9623
710.46	6607.23584
710.653	6629.23326
710.846	6619.51028
711.04	6657.20484
711.233	6655.32959
711.426	6553.56521
711.619	6607.70009
711.812	6505.40077
712.005	6543.08585
712.198	6564.17098
712.391	6608.21175
712.585	6545.09367
712.778	6528.56975
712.971	6425.19723
713.164	6547.72196
713.357	6561.60438
713.55	6509.15732
713.743	6372.91743
713.936	6427.8323
714.129	6542.74635
714.322	6466.31366
714.514	6401.63101
714.707	6469.07767
714.9	6415.42044
715.093	6451.01269
715.286	6334.16588
715.479	6413.66632
715.672	6351.47453
715.864	6326.64125
716.057	6285.78157
716.25	6288.25645
716.443	6458.27981
716.636	6262.02332
716.828	6366.15743
717.021	6377.56212
717.214	6214.08111
717.406	6318.9924
717.599	6221.19501
717.792	6217.34498
717.984	6147.28885
718.177	6114.90451
718.37	6060.59337
718.562	6168.74083
718.755	6076.15404
718.947	6028.02412
719.14	5973.78695
719.333	5928.1831
719.525	5814.48226
719.718	5959.99518
719.91	5748.65781
720.103	5790.39144
720.295	5577.80765
720.487	5723.07439
720.68	5592.41171
720.872	5708.31504
721.065	5461.73263
721.257	5431.05061
721.449	5283.78748
721.642	5357.56625
721.834	5322.89588
722.026	5345.90025
722.219	5209.6542
722.411	5249.41175
722.603	5104.34188
722.796	5199.44246
722.988	5110.55358
723.18	5042.43635
723.372	4973.09343
723.565	5014.8269
723.757	4857.54952
723.949	4947.8076
724.141	4850.73578
724.333	4921.75197
724.525	4744.04345
724.717	4995.74684
724.91	4768.92641
725.102	4718.61822
725.294	4694.1635
725.486	4802.018
725.678	4635.8772
725.87	4688.13332
726.062	4613.09504
726.254	4665.59151
726.446	4475.15144
726.638	4579.8536
726.83	4429.09841
727.022	4437.92381
727.213	4478.3865
727.405	4601.19092
727.597	4362.15685
727.789	4443.68755
727.981	4380.31449
728.173	4500.19718
728.365	4373.39904
728.556	4392.64202
728.748	4302.10073
728.94	4275.02188
729.132	4372.81128
729.324	4406.52009
729.515	4317.20248
729.707	4328.28633
729.899	4363.04311
730.09	4369.20532
730.282	4357.82502
730.474	4397.39122
730.665	4324.9958
730.857	4329.12347
731.049	4302.51368
731.24	4361.51219
731.432	4403.75981
731.623	4286.22454
731.815	4326.797
732.006	4274.46935
732.198	4228.46025
732.389	4258.96209
732.581	4156.05692
732.772	4283.68092
732.964	4215.51974
733.155	4164.36227
733.347	4177.39209
733.538	4253.68047
733.729	4191.89164
733.921	4219.55661
734.112	4056.02948
734.304	4219.85422
734.495	4146.00118
734.686	4244.02102
734.877	4099.23909
735.069	4200.92811
735.26	4184.23782
735.451	4211.44203
735.643	4098.72187
735.834	4283.71248
736.025	4213.28532
736.216	4176.32679
736.407	4054.84065
736.599	4222.19824
736.79	4260.34821
736.981	4252.74334
737.172	4161.259
737.363	4246.35005
737.554	4171.52445
737.745	4267.75469
737.936	4146.02356
738.127	4322.31643
738.318	4107.3618
738.509	4292.04238
738.7	4256.70261
738.891	4317.80364
739.082	4130.20348
739.273	4195.25761
739.464	4297.55607
739.655	4417.95835
739.846	4221.87688
740.037	4276.35893
740.228	4166.49316
740.419	4320.27364
740.609	4288.83029
740.8	4263.34843
740.991	4192.31675
741.182	4322.66794
741.373	4336.0737
741.563	4338.54152
741.754	4287.41791
741.945	4258.98432
742.136	4208.24261
742.326	4339.54297
742.517	4256.28101
742.708	4274.15376
742.898	4231.63602
743.089	4283.07911
743.28	4258.54459
743.47	4253.51374
743.661	4185.97542
743.851	4289.14759
744.042	4177.04129
744.233	4275.36033
744.423	4176.94774
744.614	4286.32447
744.804	4103.44396
744.995	4284.67676
745.185	4056.03539
745.376	4264.65364
745.566	4191.39604
745.756	4257.67065
745.947	4194.14632
746.137	4123.25034
746.328	4176.23386
746.518	4281.31812
746.708	4168.12938
746.899	4135.12902
747.089	4120.89809
747.279	4135.12506
747.47	4156.46014
747.66	4216.90062
747.85	4069.3839
748.04	3995.43625
748.231	4076.66046
748.421	4110.52567
748.611	4087.02533
748.801	4151.95583
748.991	4019.17659
749.182	4095.64458
749.372	4089.69304
749.562	4093.79771
749.752	4056.84799
749.942	4010.47105
750.132	4013.29813
750.322	4120.88079
750.512	4017.23815
750.702	4147.3476
750.892	3980.31184
751.082	4096.16062
751.272	3962.44965
751.462	4111.54601
751.652	3956.88682
751.842	4052.94971
752.032	3931.40502
752.222	3978.89421
752.412	3871.23952
752.602	3874.79899
752.792	3925.8625
752.981	3965.97839
753.171	3839.02418
753.361	3782.52769
753.551	3913.97067
753.741	3911.23564
753.93	3879.9695
754.12	3813.68018
754.31	3895.90339
754.5	3946.16385
754.689	3794.94242
754.879	3805.29328
755.069	3759.4163
755.258	3800.29002
755.448	3750.96093
755.638	3839.64789
755.827	3688.97465
756.017	3668.09691
756.206	3631.11594
756.396	3793.56893
756.586	3599.37371
756.775	3692.48065
756.965	3673.05805
757.154	3633.25966
757.344	3604.84289
757.533	3697.89854
757.723	3674.4143
757.912	3689.60791
758.101	3621.42652
758.291	3698.61841
758.48	3583.99122
758.67	3522.75789
758.859	3402.77572
759.048	3632.24442
759.238	3514.67208
759.427	3576.16013
759.616	3438.61378
759.806	3575.59979
759.995	3421.99544
760.184	3627.98734
760.373	3355.273
760.563	3516.73698
760.752	3413.65164
760.941	3518.24967
761.13	3381.97026
761.319	3398.16764
761.509	3333.03973
761.698	3245.86654
761.887	3196.32425
762.076	3189.37299
762.265	3051.68589
762.454	3066.33537
762.643	2924.04277
762.832	2945.66551
763.021	2727.12249
763.21	2820.80169
763.399	2646.12349
763.588	2630.45679
763.777	2575.58361
763.966	2551.58458
764.155	2403.47424
764.344	2385.94467
764.533	2343.16196
764.722	2368.30048
764.911	2189.17551
765.1	2197.56149
765.288	2072.14782
765.477	2052.86837
765.666	2009.66076
765.855	1966.13662
766.044	1927.5401
766.232	1916.00315
766.421	1874.31233
766.61	1945.20839
766.799	1729.11196
766.987	1731.58804
767.176	1554.39924
767.365	1725.41612
767.553	1545.87429
767.742	1586.43595
767.931	1461.48199
768.119	1544.0868
768.308	1540.99386
768.497	1456.28782
768.685	1414.2394
768.874	1492.2073
769.062	1438.78655
769.251	1431.12274
769.439	1343.57953
769.628	1501.73578
769.816	1460.30424
770.005	1502.5902
770.193	1428.06999
770.382	1569.59169
770.57	1542.32022
770.758	1611.19343
770.947	1596.35148
771.135	1736.70203
771.323	1714.52157
771.512	1819.76383
771.7	1677.60579
771.888	1784.18816
772.077	1817.40622
772.265	1860.17506
772.453	1890.40247
772.642	2040.54143
772.83	1999.87806
773.018	2064.50339
773.206	1897.88133
773.394	2029.08209
773.583	2037.72893
773.771	2190.33678
773.959	2141.89661
774.147	2129.1092
774.335	2206.20426
774.523	2329.54571
774.711	2199.56683
774.899	2325.52576
775.087	2250.65306
775.275	2328.34979
775.463	2293.83908
775.651	2436.17475
775.839	2361.55968
776.027	2461.78335
776.215	2411.08483
776.403	2521.40048
776.591	2472.10922
776.779	2586.47713
776.967	2374.80255
777.155	2563.31659
777.343	2384.19035
777.531	2601.51665
777.718	2506.06198
777.906	2591.58658
778.094	2552.1053
778.282	2634.43637
778.47	2545.86278
778.657	2547.45026
778.845	2437.62861
779.033	2562.33938
779.22	2467.37855
779.408	2570.24243
779.596	2525.61897
779.783	2478.76367
779.971	2559.55223
780.159	2564.51381
780.346	2515.68434
780.534	2569.18937
780.722	2465.14167
780.909	2504.54836
781.097	2435.55307
781.284	2595.78924
781.472	2533.75256
781.659	2482.63092
781.847	2432.05856
782.034	2517.4868
782.222	2326.31191
782.409	2485.33227
782.597	2374.87404
782.784	2495.87802
782.971	2397.52504
783.159	2460.35877
783.346	2346.32543
783.533	2394.07155
783.721	2416.03528
783.908	2391.80521
784.095	2379.10151
784.283	2358.67259
784.47	2455.32476
784.657	2432.78773
784.844	2352.31884
785.032	2417.49417
785.219	2339.9964
785.406	2419.67891
785.593	2322.28418
785.78	2380.49965
785.968	2320.73212
786.155	2340.92449
786.342	2248.93133
786.529	2340.26594
786.716	2192.91516
786.903	2268.5375
787.09	2170.30127
787.277	2425.62373
787.464	2168.51133
787.651	2203.18492
787.838	2186.59899
788.025	2258.81291
788.212	2174.68567
788.399	2292.76925
788.586	2104.07262
788.773	2219.1118
788.96	2162.80632
789.147	2205.07539
789.334	2057.44464
789.521	2219.99612
789.707	2206.91236
789.894	2155.24221
790.081	2192.18132
790.268	2217.22253
790.455	2097.90906
790.641	2084.20134
790.828	2078.01859
791.015	2199.36411
791.202	2080.38427
791.388	2124.42715
791.575	2027.87484
791.762	2094.67568
791.948	2019.4429
792.135	2035.77498
792.322	1854.19696
792.508	2054.64565
792.695	2025.10766
792.881	2080.34196
793.068	1995.24355
793.254	2064.18053
793.441	1928.69896
793.627	2056.25251
793.814	1906.89201
794	1959.30533
794.187	1830.83509
794.373	1949.43682
794.56	1820.57013
794.746	1980.81737
794.933	1947.65283
795.119	1950.54693
795.305	1779.87406
795.492	1904.1892
795.678	1805.73236
795.864	1899.07001
796.051	1854.60708
796.237	1835.07661
796.423	1753.29692
796.61	1824.30059
796.796	1817.13423
796.982	1904.1892
797.168	1740.76788
797.355	1937.30318
797.541	1824.45286
797.727	1956.5188
797.913	1739.71656
798.099	1775.1137
798.285	1697.48866
798.471	1848.47474
798.658	1683.65271
798.844	1839.35235
799.03	1680.22858
799.216	1768.2545
799.402	1713.69321
799.588	1735.45533
799.774	1712.4863
799.96	1728.59418
800.146	1605.12328
800.332	1747.09457
800.518	1648.70022
800.704	1743.81654
800.89	1625.41194
801.075	1743.03135
801.261	1697.24381
801.447	1755.8413
801.633	1674.47928
801.819	1750.64481
802.005	1619.52087
802.19	1736.41466
802.376	1587.23485
802.562	1765.76182
802.748	1673.62227
802.934	1712.80019
803.119	1640.09676
803.305	1698.67313
803.491	1679.39049
803.676	1688.81268
803.862	1609.21708
804.048	1698.89471
804.233	1492.54631
804.419	1652.03639
804.605	1553.83084
804.79	1657.84926
804.976	1584.17991
805.161	1617.35015
805.347	1549.87077
805.532	1652.89063
805.718	1568.3471
805.903	1583.37677
806.089	1587.68466
806.274	1610.135
806.46	1590.96757
806.645	1690.03098
806.831	1582.03962
807.016	1651.33352
807.201	1592.28525
807.387	1622.34358
807.572	1550.39687
807.757	1677.31788
807.943	1558.13515
808.128	1616.09871
808.313	1556.64816
808.499	1596.51989
808.684	1522.44242
808.869	1500.1459
809.054	1402.59493
809.24	1513.7348
809.425	1507.44659
809.61	1539.66203
809.795	1466.455
809.98	1580.30159
810.165	1504.74604
810.35	1543.34774
810.536	1490.48725
810.721	1475.625
810.906	1390.6308
811.091	1475.57615
811.276	1391.10833
811.461	1523.39024
811.646	1382.91682
811.831	1476.94897
812.016	1499.52693
812.201	1490.39471
812.386	1477.64857
812.571	1452.63089
812.756	1336.04071
812.941	1460.17194
813.125	1357.30082
813.31	1461.68739
813.495	1354.27047
813.68	1378.6341
813.865	1383.38043
814.05	1454.25808
814.234	1267.85106
814.419	1458.17686
814.604	1344.34598
814.789	1416.45737
814.973	1355.59099
815.158	1346.64916
815.343	1250.10785
815.528	1320.42797
815.712	1254.0033
815.897	1308.19583
816.081	1224.54542
816.266	1220.66261
816.451	1251.85385
816.635	1172.63218
816.82	1151.85906
817.004	1277.75597
817.189	1128.70939
817.374	1166.86303
817.558	1127.58108
817.743	1166.66341
817.927	1058.4353
818.111	1163.70863
818.296	1089.65273
818.48	1060.39829
818.665	1034.67091
818.849	1044.78903
819.034	973.96479
819.218	979.36894
819.402	942.00784
819.587	959.06059
819.771	883.77729
819.955	1031.05429
820.14	915.45755
820.324	908.87404
820.508	839.74531
820.692	949.28003
820.877	866.67882
821.061	873.29841
821.245	862.96062
821.429	833.81069
821.613	843.07016
821.798	804.40727
821.982	731.82661
822.166	817.25236
822.35	742.40578
822.534	835.05355
822.718	688.7064
822.902	793.30235
823.086	772.07292
823.27	712.16774
823.454	701.26522
823.638	805.61267
823.822	732.40415
824.006	804.89349
824.19	668.70848
824.374	752.56882
824.558	690.13171
824.742	763.5356
824.926	624.48963
825.11	729.91261
825.294	673.38178
825.477	648.01016
825.661	634.61476
825.845	682.80081
826.029	651.81864
826.213	701.74591
826.396	625.46361
826.58	622.5496
826.764	698.63622
826.948	599.69872
827.131	598.50477
827.315	654.84979
827.499	626.45602
827.682	694.34448
827.866	621.80467
828.05	608.33091
828.233	623.54635
828.417	668.00719
828.6	571.47574
828.784	687.11842
828.967	641.12751
829.151	644.57991
829.335	647.09254
829.518	622.5496
829.701	543.28204
829.885	641.68358
830.068	588.56446
830.252	682.09178
830.435	566.66406
830.619	594.98986
830.802	571.41102
830.985	626.06947
831.169	598.61369
831.352	620.47354
831.535	584.45582
831.719	543.02361
831.902	516.86671
832.085	531.76278
832.269	471.85125
832.452	573.56519
832.635	583.88321
832.818	547.2971
833.002	513.70641
833.185	563.68653
833.368	533.02698
833.551	543.42157
833.734	496.61963
833.917	597.5068
834.1	528.74676
834.284	665.95034
834.467	560.99894
834.65	583.77587
834.833	511.18315
835.016	574.19033
835.199	505.83703
835.382	559.93165
835.565	509.96037
835.748	559.78833
835.931	502.54163
836.114	582.98617
836.297	480.76942
836.479	513.0829
836.662	462.12741
836.845	526.56698
837.028	467.6671
837.211	496.8577
837.394	494.54454
837.577	512.10497
837.759	492.32289
837.942	510.90143
838.125	467.78798
838.308	468.4163
838.49	561.84506
838.673	343.63112
838.856	465.84074
839.039	533.2613
839.221	503.59677
839.404	469.85489
839.587	460.82895
839.769	449.96524
839.952	490.8685
840.134	522.51372
840.317	464.36745
840.499	497.60189
840.682	382.48905
840.865	532.58286
841.047	491.35717
841.23	493.67081
841.412	408.67018
841.595	457.24321
841.777	439.95499
841.959	519.14452
842.142	399.61499
842.324	443.21532
842.507	435.40821
842.689	504.89422
842.871	513.7254
843.054	539.00441
843.236	442.85058
843.418	408.54906
843.601	408.83716
843.783	436.32705
843.965	431.03833
844.147	474.68457
844.33	448.52187
844.512	508.53303
844.694	411.93332
844.876	501.33801
845.059	396.34886
845.241	408.3528
845.423	458.96244
845.605	454.07804
845.787	327.93905
845.969	457.68115
846.151	437.55194
846.333	470.51646
846.515	439.05424
846.697	377.84387
846.879	483.27424
847.061	440.38018
847.243	407.10528
847.425	402.02002
847.607	431.35873
847.789	452.05564
847.971	440.41301
848.153	432.26323
848.335	383.0985
848.517	364.0827
848.699	394.47397
848.881	378.73998
849.062	400.86183
849.244	394.28296
849.426	353.06524
849.608	438.284
849.789	351.01809
849.971	400.56512
850.153	319.1282
850.335	375.39574
850.516	341.64005
850.698	362.24566
850.88	366.62679
851.061	389.71084
851.243	317.27641
851.425	359.97314
851.606	347.40919
851.788	415.31798
851.969	365.25184
852.151	381.21131
852.333	275.43007
852.514	410.13401
852.696	314.94884
852.877	329.54395
853.059	367.92162
853.24	355.96096
853.422	217.24934
853.603	370.9362
853.784	298.03207
853.966	314.8312
854.147	270.06061
854.329	302.63276
854.51	282.44174
854.691	285.82483
854.873	320.91509
855.054	304.05742
855.235	261.13196
855.416	319.47359
855.598	244.45656
855.779	346.31956
855.96	293.11083
856.141	328.53856
856.323	261.2593
856.504	264.62316
856.685	268.12806
856.866	202.98162
857.047	286.22285
857.228	295.96537
857.409	211.04981
857.591	249.04279
857.772	203.18895
857.953	219.75626
858.134	226.87224
858.315	191.78234
858.496	186.18818
858.677	227.80292
858.858	190.81373
859.039	288.52532
859.22	191.99305
859.401	288.4599
859.582	247.1886
859.762	208.71359
859.943	191.9202
860.124	276.12275
860.305	233.41886
860.486	233.2868
860.667	203.11198
860.848	264.7925
861.028	233.45416
861.209	232.29042
861.39	274.00947
861.571	205.36052
861.751	154.85989
861.932	153.59241
862.113	236.91205
862.293	250.20879
862.474	159.25687
862.655	300.74944
862.835	175.07508
863.016	253.91165
863.197	219.17652
863.377	180.6404
863.558	208.88777
863.738	234.80547
863.919	230.03367
864.099	186.3575
864.28	255.02231
864.46	186.20225
864.641	221.23451
864.821	227.9583
865.002	148.17241
865.182	194.19142
865.363	241.31915
865.543	205.49294
865.723	197.77991
865.904	188.68626
866.084	149.17027
866.264	191.74618
866.445	99.77962
866.625	176.24997
866.805	181.94777
866.986	212.20262
867.166	138.0677
867.346	158.02825
867.526	175.02863
867.707	208.91161
867.887	178.62924
868.067	171.8611
868.247	179.55347
868.427	172.81912
868.607	164.9559
868.788	172.95057
868.968	111.04574
869.148	198.80346
869.328	134.68844
869.508	167.34533
869.688	148.21195
869.868	140.26009
870.048	173.98009
870.228	151.59766
870.408	188.63601
870.588	156.11851
870.768	174.05951
870.948	157.19341
871.128	149.2779
871.307	137.0075
871.487	122.33313
871.667	149.20986
871.847	169.53206
872.027	143.72569
872.207	102.07699
872.387	175.24169
872.566	134.80172
872.746	163.96522
872.926	168.44851
873.106	143.72021
873.285	155.09645
873.465	123.48956
873.645	77.32001
873.824	133.71881
874.004	161.73862
874.184	120.09533
874.363	134.73984
874.543	161.73862
874.723	143.81917
874.902	144.81559
875.082	116.81374
875.261	160.50578
875.441	68.25715
875.62	85.25603
875.8	134.61159
875.979	146.05546
876.159	124.56093
876.338	86.33151
876.518	143.80264
876.697	130.26583
876.876	121.16347
877.056	109.9098
877.235	80.6381
877.415	146.02751
877.594	95.37656
877.773	147.25244
877.953	28.91495
878.132	120.12287
878.311	90.90542
878.49	119.0537
878.67	58.2278
878.849	89.73202
879.028	104.38059
879.207	107.6919
879.387	85.26257
879.566	126.87016
879.745	123.53209
879.924	93.04175
880.103	71.74621
880.282	161.93081
880.461	145.12704
880.64	143.80815
880.819	102.17477
880.998	129.21634
881.178	62.6925
881.357	89.74234
881.536	120.1827
881.715	133.72395
881.893	113.43107
882.072	82.92954
882.251	115.57407
882.43	100.9878
882.609	94.223
882.788	88.5972
882.967	123.48484
883.146	88.63794
883.325	60.49574
883.503	120.21039
883.682	137.08623
883.861	97.68204
884.04	133.68804
884.219	93.09504
884.397	131.4298
884.576	3.00582
884.755	59.37192
884.933	98.70508
885.112	94.38618
885.291	85.29206
885.469	112.32367
885.648	126.9723
885.827	62.74301
886.005	147.17341
886.184	83.03764
886.363	120.252
886.541	124.78072
886.72	76.30669
886.898	-37.47828
887.077	118.02454
887.255	85.26912
887.434	132.77868
887.612	97.71211
887.791	142.6899
887.969	59.36278
888.147	63.86645
888.326	61.61707
888.504	24.41059
888.682	88.63794
888.861	143.81917
889.039	89.69772
889.218	88.63454
889.396	46.9219
889.574	43.55435
889.752	88.64135
889.931	31.18482
890.109	80.77079
890.287	114.62176
890.465	60.44469
890.643	101.13933
890.822	153.95507
891	40.19903
891.178	21.04076
891.356	51.48169
891.534	77.44483
891.712	21.02784
891.89	72.85774
892.068	95.38753
892.247	78.50465
892.425	124.77111
892.603	61.56746
892.781	104.47282
892.959	64.97728
893.137	88.6959
893.314	93.18077
893.492	118.03819
893.67	109.92655
893.848	39.07721
894.026	45.80717
894.204	69.4764
894.382	67.24375
894.56	58.20323
894.738	94.30978
894.915	24.41527
895.093	77.44184
895.271	83.00574
895.449	-7.14227
895.626	53.68894
895.804	41.33963
895.982	116.81822
896.16	97.65203
896.337	104.44067
896.515	105.72478
896.693	101.01488
896.87	31.20284
897.048	24.41434
897.225	58.24572
897.403	44.69361
897.581	76.29786
897.758	42.4434
897.936	32.30143
898.113	61.6622
898.291	78.48959
898.468	3.00478
898.646	84.18916
898.823	-12.77327
899.001	17.66839
899.178	134.85344
899.356	70.71331
899.533	78.52577
899.71	24.41996
899.888	120.25663
900.065	-2.62803
900.242	56.01911
900.42	60.54476
900.597	98.88342
900.774	25.57514
900.952	128.26987
901.129	78.57419
901.306	68.39046
901.483	79.6606
901.661	78.48959
901.838	10.9081
902.015	23.29871
902.192	70.6451
902.369	63.90088
902.546	63.86154
902.723	24.42466
902.901	84.15029
903.078	68.44325
903.255	67.34243
903.432	54.87744
903.609	57.11289
903.786	49.2346
903.963	50.35532
904.14	79.679
904.317	37.9712
904.494	74.03704
904.671	15.41702
904.848	61.67651
905.024	68.48835
905.201	56.04728
905.378	-26.32633
905.555	15.40929
905.732	56.00614
905.909	44.71422
906.086	-12.77033
906.262	98.8987
906.439	63.88365
906.616	15.41523
906.793	27.80493
906.969	31.22336
907.146	6.38971
907.323	6.38799
907.5	49.26692
907.676	63.92061
907.853	62.81811
908.03	-0.37618
908.206	8.6459
908.383	67.27739
908.559	55.98458
908.736	55.99967
908.912	28.92271
909.089	67.32418
909.266	-9.39663
909.442	45.8795
909.619	34.59497
909.795	75.16885
909.972	50.37667
910.148	4.1342
910.324	66.21507
910.501	59.38564
910.677	68.44325
910.854	88.75412
911.03	42.46953
911.206	66.16132
911.383	-34.1998
911.559	70.68597
911.735	32.29771
911.912	86.36124
912.088	77.40604
912.264	31.18002
912.44	24.43313
912.617	35.721
912.793	13.15985
912.969	63.94287
913.145	77.43886
913.321	26.72054
913.498	-7.14309
913.674	24.43596
913.85	54.91774
914.026	24.42466
914.202	31.19322
914.378	22.17605
914.554	52.66493
914.73	19.90326
914.906	-2.63289
915.082	34.58295
915.258	51.53539
915.434	40.19749
915.61	-1.5057
915.786	65.06498
915.962	98.87196
916.138	55.99967
916.314	-12.78608
916.49	30.06633
916.665	14.28591
916.841	16.55696
917.017	36.84547
917.193	12.03303
917.369	34.63121
917.545	-28.58398
917.72	75.2153
917.896	-6.01744
918.072	57.19903
918.247	51.52741
918.423	85.3909
918.599	84.16647
918.775	-1.50366
918.95	-10.52809
919.126	-2.63015
919.301	51.53539
919.477	6.39267
919.653	81.98471
919.828	6.39267
920.004	34.60032
920.179	15.40988
920.355	-76.9638
920.53	39.08173
920.706	6.39663
920.881	42.48755
921.057	24.41246
921.232	28.95504
921.408	12.02885
921.583	14.29088
921.759	32.33753
921.934	51.50551
922.109	28.96737
922.285	24.46722
922.46	10.90093
922.635	4.13595
922.811	26.70087
922.986	15.42358
923.161	-57.9494
923.336	0.75224
923.512	49.24219
923.687	42.47935
923.862	45.85118
924.037	-26.31819
924.212	15.41345
924.388	33.49477
924.563	39.1316
924.738	27.806
924.913	87.65473
925.088	22.16752
925.263	-19.56655
925.438	1.87911
925.613	-20.68697
925.788	17.68275
925.963	27.82101
926.138	27.84147
926.313	3.01071
926.488	84.27381
926.663	14.29254
926.838	6.38971
927.013	48.12471
927.188	42.50234
927.363	-7.14613
927.538	-1.50372
927.713	50.38835
927.888	-28.59505
928.062	15.41643
928.237	15.41941
928.412	32.33628
928.587	23.3077
928.761	14.28316
928.936	19.92855
929.111	-20.69258
929.286	9.76855
929.46	28.95169
929.635	65.03482
929.81	-1.50407
929.984	52.67105
930.159	35.70034
930.334	6.38651
930.508	51.51346
930.683	23.32664
930.857	30.08723
931.032	27.80493
931.206	62.81081
931.381	36.87258
931.556	30.07329
931.73	49.31089
931.904	0.75241
932.079	13.16087
932.253	-4.8838
932.428	5.26567
932.602	4.13309
932.777	10.90135
932.951	21.05211
933.125	16.53839
933.3	88.71984
933.474	23.31851
933.648	49.29748
933.823	30.07793
933.997	43.63495
934.171	26.70914
934.345	-45.4885
934.52	-59.08862
934.694	26.70397
934.868	33.49347
935.042	19.94012
935.217	0.75212
935.391	32.33753
935.565	56.02777
935.739	36.86543
935.913	-19.5499
936.087	-27.44558
936.261	67.32418
936.435	15.40929
936.609	-25.20831
936.783	27.83177
936.957	34.60702
937.131	-52.24331
937.305	12.03442
937.479	43.64171
937.653	-3.76003
937.827	-24.07258
938.001	-21.82
938.175	27.8135
938.349	-6.01651
938.523	18.80452
938.697	-8.26951
938.87	-3.76105
939.044	-3.76105
939.218	43.6451
939.392	3.00768
939.566	45.92222
939.739	1.88063
939.913	49.29365
940.087	-9.39808
940.261	26.69159
940.434	33.46493
940.608	-57.89783
940.782	72.99275
940.955	28.98312
941.129	19.91473
941.302	12.02931
941.476	14.31479
941.65	21.0774
941.823	30.07097
941.997	7.52501
942.17	-9.40353
942.344	-13.91238
942.517	-57.9023
942.691	-0.37635
942.864	45.89016
943.038	-2.63309
943.211	28.94498
943.385	62.79624
943.558	6.39045
943.731	-77.06145
943.905	-3.7596
944.078	0.75206
944.251	8.64357
944.425	49.27455
944.598	-26.33142
944.771	48.18632
944.945	48.16759
945.118	26.73093
945.291	21.07413
945.464	30.09656
945.638	23.3131
945.811	54.92626
945.984	12.03071
946.157	9.77419
946.33	63.97262
946.503	43.6147
946.677	88.79194
946.85	31.21611
947.023	-16.16283
947.196	-10.53298
947.369	4.13996
947.542	3.01199
947.715	-4.88738
947.888	-36.48148
948.061	30.09306
948.234	-15.04071
948.407	30.07445
948.58	9.78214
948.753	-16.16221
948.926	-8.27912
949.099	10.90852
949.271	-25.22693
949.444	9.7829
949.617	39.14072
949.79	-6.02024
949.963	47.05787
950.136	0.7516
950.308	-26.33755
950.481	14.30141
950.654	9.77533
950.827	4.13868
950.999	22.21043
951.172	6.38996
951.345	69.54055
951.517	86.46758
951.69	18.81618
951.863	-2.63289
952.035	-6.02141
952.208	8.64623
952.381	61.71955
952.553	-18.44308
952.726	52.67309
952.898	-38.72609
953.071	-11.65452
953.243	69.54592
953.416	5.26364
953.588	-45.49553
953.761	21.08396
953.933	3.00698
954.106	70.69963
954.278	-29.69909
954.45	3.00733
954.623	22.20439
954.795	48.1396
954.967	15.4206
955.14	58.31778
955.312	49.28983
955.484	-18.43807
955.657	25.59299
955.829	30.10123
956.001	-3.75901
956.173	-6.01466
956.346	5.26914
956.518	-9.4028
956.69	41.37476
956.862	-4.89154
957.034	-11.65227
957.207	32.36384
957.379	-4.88681
957.551	63.98505
957.723	-19.54839
957.895	52.64659
958.067	40.21606
958.239	-25.17135
958.411	-11.65948
958.583	21.044
958.755	-0.37646
958.927	-10.53012
959.099	16.55118
959.271	-11.65003
959.443	25.59897
959.615	-8.27559
959.787	-10.52646
959.959	17.68207
960.13	28.93161
960.302	-25.19659
960.474	32.34378
960.646	0.75177
960.818	81.96886
960.99	18.80962
961.161	5.2669
961.333	-45.50256
961.505	1.87875
961.677	14.28646
961.848	15.42
962.02	33.46493
962.192	50.40785
962.363	-0.37635
962.535	5.26608
962.707	-16.17282
962.878	33.49737
963.05	-4.88738
963.221	63.90334
963.393	-28.57073
963.564	-18.42807
963.736	-30.85136
963.907	27.83392
964.079	25.5791
964.25	-6.01582
964.422	-10.52321
964.593	-1.50361
964.765	43.62482
964.936	33.43914
965.108	-3.76032
965.279	-13.91346
965.45	-0.37605
965.622	12.04142
965.793	34.60166
965.964	33.48437
966.136	-33.10108
966.307	67.33982
966.478	37.99617
966.65	22.19836
966.821	-43.26465
966.992	35.72238
967.163	-7.14392
967.334	-24.08098
967.506	-0.37639
967.677	50.43133
967.848	-34.23019
968.019	9.78062
968.19	30.08258
968.361	97.78759
968.532	-8.26665
968.703	-21.79725
968.874	-29.68422
969.045	9.77457
969.216	-24.07444
969.387	17.67864
969.558	-9.39518
969.729	45.89016
969.9	43.57943
970.071	35.7362
970.242	12.03629
970.413	-19.56276
970.584	-1.50401
970.755	-6.01908
970.926	40.27996
971.097	19.92317
971.267	-1.50326
971.438	13.16342
971.609	21.07658
971.78	9.77684
971.951	34.61238
972.121	25.58902
972.292	18.79508
972.463	-10.52524
972.633	31.23426
972.804	-19.55821
972.975	-17.2888
973.145	7.5221
973.316	25.55934
973.487	44.76257
973.657	41.36996
973.828	23.3032
973.998	26.705
974.169	48.15265
974.339	-7.14807
974.51	-3.76105
974.68	-4.89078
974.851	4.13948
975.021	21.0513
975.192	41.38117
975.362	-3.76236
975.533	-7.14144
975.703	12.03675
975.874	-16.16034
976.044	-2.63329
976.214	36.8783
976.385	24.43596
976.555	-15.05178
976.725	42.47935
976.896	80.90191
977.066	28.95169
977.236	72.95883
977.406	21.07004
977.577	37.98294
977.747	13.17056
977.917	28.96401
978.087	21.0684
978.257	-42.10749
978.427	7.52501
978.598	49.29939
978.768	9.77684
978.938	12.02885
979.108	45.86709
979.278	-37.63238
979.448	18.7987
979.618	4.1382
979.788	0.75236
979.958	22.19062
980.128	-13.92046
980.298	28.96064
980.468	36.88116
980.638	-16.16408
980.808	-46.67505
980.978	-18.4174
981.148	-46.62262
981.317	17.67385
981.487	-26.3529
981.657	16.5467
981.827	13.16444
981.997	62.82785
982.167	39.13464
982.336	33.49997
982.506	50.42349
982.676	-3.7596
982.846	-55.63992
983.015	-43.2546
983.185	4.13532
983.355	-15.02622
983.524	-36.46176
983.694	-31.97202
983.864	-7.14309
984.033	24.41996
984.203	12.03629
984.372	-3.7596
984.542	28.9394
984.712	-7.14807
984.881	24.44257
985.051	-39.86405
985.22	33.45589
985.39	-3.76032
985.559	0.75198
985.728	-4.89154
985.898	37.99617
986.067	35.73344
986.237	-47.7552
986.406	-8.27816
986.576	25.58405
986.745	26.71535
986.914	24.46722
987.084	34.60702
987.253	17.66703
987.422	23.31941
987.591	27.8135
987.761	-7.14973
987.93	-37.6353
988.099	36.85117
988.268	9.7757
988.438	12.03071
988.607	79.70975
988.776	-7.14835
988.945	65.08262
989.114	-11.66717
989.283	49.29556
989.452	30.09073
989.621	-10.52971
989.791	30.09772
989.96	3.00675
990.129	18.79363
990.298	-7.14918
990.467	48.16012
990.636	89.86325
990.805	1.88012
990.974	9.78252
991.142	-20.69338
991.311	-8.26888
991.48	8.64557
991.649	-20.69178
991.818	4.1342
991.987	7.51513
992.156	54.94117
992.325	8.65192
992.493	5.26282
992.662	-198.1615
992.831	-0.37621
993	24.42654
993.168	18.80161
993.337	92.10147
993.506	30.09656
993.675	34.59096
993.843	4.13404
994.012	58.29745
994.181	-48.89935
994.349	35.7362
994.518	35.69896
994.686	23.33751
994.855	9.77457
995.024	-63.58767
995.192	-8.27591
995.361	-36.46739
995.529	21.05455
995.698	-57.92246
995.866	48.12286
996.035	4.13675
996.203	-28.59173
996.371	31.21732
996.54	3.00942
996.708	16.54094
996.877	34.61641
997.045	36.864
997.213	-7.14835
997.382	54.88379
997.55	-9.39663
997.718	-27.4477
997.887	-6.01908
998.055	21.04562
998.223	6.38922
998.391	14.28536
998.56	68.44061
998.728	-2.63401
998.896	58.36314
999.064	48.13774
999.232	-12.78016
999.401	-53.39043
999.569	17.68207
999.737	68.44325
999.905	7.5221
1000.073	43.65526
1000.241	7.51948
1000.409	65.10788
1000.577	-15.04071
1000.745	13.16852
1000.913	7.5221
1001.081	-47.75151
1001.249	-25.21026
1001.417	-45.49026
1001.585	-6.01908
1001.753	18.80525
1001.921	7.52326
1002.089	27.81994
1002.256	9.781
1002.424	43.63326
1002.592	18.80088
1002.76	14.29254
1002.928	3.00826
1003.096	63.95525
1003.263	28.95504
1003.431	4.13884
1003.599	-16.17784
1003.767	32.33128
1003.934	-13.9302
1004.102	44.7211
1004.27	-15.04653
1004.437	24.42842
1004.605	60.54945
1004.773	48.11914
1004.94	-8.27527
1005.108	-25.18395
1005.275	12.04189
1005.443	43.61133
1005.61	-18.43164
1005.778	-4.8904
1005.945	-29.71747
1006.113	-9.40827
1006.28	17.67181
1006.448	19.93086
1006.615	-8.27463
1006.783	43.66884
1006.95	9.77684
1007.118	7.5256
1007.285	40.24714
1007.452	13.16291
1007.62	22.2018
1007.787	-22.94373
1007.954	42.51058
1008.122	-17.30283
1008.289	13.16801
1008.456	26.72677
1008.623	45.89371
1008.791	54.89651
1008.958	31.21973
1009.125	-9.40317
1009.292	16.55953
1009.459	50.39615
1009.627	-28.57403
1009.794	4.13532
1009.961	18.78784
1010.128	43.66884
1010.295	21.05699
1010.462	84.3098
1010.629	58.31778
1010.796	19.93858
1010.963	50.3942
1011.13	-28.57514
1011.297	-2.6337
1011.464	-29.69795
1011.631	-9.40135
1011.798	-41.01213
1011.965	34.61238
1012.132	-3.7628
1012.299	27.82746
1012.466	-13.91238
1012.633	0.75198
1012.799	-12.79252
1012.966	14.28867
1013.133	32.35129
1013.3	23.314
1013.467	-26.29085
1013.633	53.8112
1013.8	-9.40499
1013.967	1.88071
1014.134	-3.76149
1014.3	70.6696
1014.467	-22.93752
1014.634	-33.1075
1014.8	25.58405
1014.967	10.90514
1015.134	21.06514
1015.3	5.26343
1015.467	-48.87289
1015.633	-11.66083
1015.8	-13.921
1015.966	-9.40827
1016.133	-35.36483
1016.3	15.40277
1016.466	19.93395
1016.632	-20.66622
1016.799	-11.66717
1016.965	-10.52443
1017.132	42.47608
1017.298	-0.3763
1017.465	65.0675
1017.631	-18.43164
1017.797	69.62675
1017.964	16.56791
1018.13	-56.76228
1018.296	36.864
1018.463	13.17056
1018.629	36.85402
1018.795	14.28316
1018.961	-8.27431
1019.128	-2.63085
1019.294	-13.91131
1019.46	33.47658
1019.626	9.7829
1019.792	13.16036
1019.959	19.92163
1020.125	74.14021
1020.291	-19.5499
1020.457	5.26343
1020.623	-36.45333
1020.789	30.10006
1020.955	-8.26888
1021.121	-24.10065
1021.287	27.80921
1021.453	19.93395
1021.619	35.74174
1021.785	4.13739
1021.951	-0.37623
1022.117	43.6147
1022.283	-15.04944
1022.449	39.13312
1022.615	39.13616
1022.781	-56.75134
1022.946	61.67174
1023.112	52.6874
1023.278	-54.51945
1023.444	78.66862
1023.61	15.41464
1023.775	1.88165
1023.941	8.65595
1024.107	21.05699
1024.273	22.18461
1024.438	-78.25726
1024.604	0.75131
1024.77	-82.64443
1024.935	-18.43521
1025.101	38.0124
1025.267	24.43502
1025.432	25.57613
1025.598	34.62448
1025.763	-4.88908
1025.929	30.07793
1026.095	-6.02094
1026.26	40.25493
1026.426	22.18461
1026.591	-36.48854
1026.757	23.32121
1026.922	7.51861
1027.087	-11.65632
1027.253	27.82209
1027.418	3.01
1027.584	-6.0128
1027.749	26.7081
1027.914	-34.23285
1028.08	-7.15307
1028.245	-11.66083
1028.41	3.00919
1028.576	-13.92046
1028.741	22.17178
1028.906	-52.25943
1029.072	17.67112
1029.237	24.44162
1029.402	17.67044
1029.567	-24.06141
1029.732	79.72207
1029.898	-17.30418
1030.063	67.34766
1030.228	30.10941
1030.393	9.78441
1030.558	45.90083
1030.723	10.92295
1030.888	-2.63278
1031.053	63.96269
1031.218	8.64891
1031.383	-26.32633
1031.548	48.12471
1031.713	23.3059
1031.878	9.77419
1032.043	30.0884
1032.208	14.29088
1032.373	15.41048
1032.538	-25.20342
1032.703	-10.53012
1032.868	-12.795
1033.033	51.54138
1033.198	31.23912
1033.362	-10.53216
1033.527	19.93549
1033.692	-7.14282
1033.857	26.69159
1034.021	72.98992
1034.186	37.9756
1034.351	-46.63704
1034.516	30.10006
1034.68	50.38056
1034.845	12.03815
1035.01	1.88136
1035.174	62.79867
1035.339	18.80597
1035.504	19.94322
1035.668	-20.66463
1035.833	13.16087
1035.997	45.85648
1036.162	48.17133
1036.326	48.19007
1036.491	-0.3761
1036.655	-51.1741
1036.82	-40.98673
1036.984	-26.29489
1037.149	-47.71839
1037.313	-46.63523
1037.478	37.97413
1037.642	14.28701
1037.807	25.57514
1037.971	-12.79998
1038.135	-15.0547
1038.3	7.52501
1038.464	8.6583
1038.628	40.24714
1038.792	-22.94729
1038.957	-15.0547
1039.121	53.76538
1039.285	-9.40572
1039.449	8.64924
1039.614	24.44446
1039.778	19.93935
1039.942	0.75189
1040.106	35.7584
1040.27	-24.07258
1040.434	-45.46047
1040.599	1.88071
1040.763	-10.52524
1040.927	14.28591
1041.091	12.03256
1041.255	-28.59394
1041.419	21.07249
1041.583	-10.5289
1041.747	-37.57569
1041.911	-29.69565
1042.075	16.54862
1042.239	63.94039
1042.403	-4.88456
1042.567	-12.77475
1042.731	-28.5884
1042.894	-40.98198
1043.058	38.00207
1043.222	-17.30619
1043.386	-44.35641
1043.55	12.03675
1043.714	26.68953
1043.877	5.26812
1044.041	42.49248
1044.205	-41.01691
1044.369	49.26692
1044.532	-1.50442
1044.696	-27.4477
1044.86	14.28646
1045.023	7.51196
1045.187	-7.1489
1045.351	-26.31413
1045.514	26.71017
1045.678	-45.5008
1045.841	51.52542
