Data from 1003 pointing at moon_Subt2__4__22-07-16-794.txt Node

Date: Tue Oct 07 22:07:16 EDT 2025
User: brett
Spectrometer: USB4F03499
Trigger mode: 4
Integration Time (sec): 1.000000E-1
Scans to average: 1
Electric dark correction enabled: true
Nonlinearity correction enabled: true
Boxcar width: 0
XAxis mode: Wavelengths
Number of Pixels in Spectrum: 3648
>>>>>Begin Spectral Data<<<<<
345.386	-93.71129
345.605	-93.71129
345.824	-93.71129
346.044	-107.25267
346.263	-36.06253
346.482	-4.41975
346.701	18.13728
346.92	32.79178
347.139	-8.93527
347.358	59.88445
347.577	15.87514
347.796	-13.44629
348.015	2.35257
348.234	-12.31865
348.453	-21.3618
348.672	-50.71663
348.891	-17.9646
349.11	6.8626
349.329	29.40528
349.548	-32.65439
349.767	31.68077
349.986	-12.31626
350.205	24.91121
350.424	-40.55999
350.643	-6.68105
350.862	12.50769
351.08	55.35698
351.299	76.68675
351.518	-14.56536
351.737	37.32343
351.956	-1.03383
352.174	29.42343
352.393	-19.0833
352.612	-48.44332
352.831	-5.54488
353.049	11.38028
353.268	0.09402
353.487	5.73129
353.705	-14.58455
353.924	-16.83757
354.143	0.09402
354.361	-31.51716
354.58	15.89353
354.798	-30.36876
355.017	3.47918
355.236	-3.2915
355.454	-2.16403
355.673	19.28325
355.891	51.99864
356.11	42.94684
356.328	14.76586
356.547	-34.88852
356.765	-16.8317
356.984	19.27131
357.202	-17.97787
357.42	-30.40534
357.639	-25.85976
357.857	-1.03511
358.076	17.0099
358.294	15.88677
358.512	22.66124
358.731	32.78799
358.949	-5.5453
359.167	31.67343
359.386	-7.79832
359.604	-4.42009
359.822	36.17641
360.04	-19.10328
360.259	32.78925
360.477	51.98055
360.695	-24.72607
360.913	40.70085
361.131	20.38876
361.35	0.09394
361.568	46.32015
361.786	6.86605
362.004	44.05673
362.222	31.68935
362.44	49.70734
362.658	1.2236
362.876	45.19181
363.094	9.11739
363.312	14.77388
363.53	11.37192
363.749	38.44046
363.967	32.78925
364.184	24.88627
364.402	12.51108
364.62	20.38405
364.838	2.35093
365.056	29.45081
365.274	40.69928
365.492	-19.07519
365.71	-34.90612
365.928	17.0224
366.146	-6.67561
366.364	29.41321
366.581	48.60509
366.799	37.32921
367.017	-3.2901
367.235	-21.35682
367.453	50.79487
367.67	32.7981
367.888	-3.29175
368.106	58.71893
368.323	66.57366
368.541	15.88125
368.759	17.01384
368.977	22.67442
369.194	35.04951
369.412	22.65773
369.629	-6.67021
369.847	44.0771
370.065	56.5121
370.282	-31.52819
370.5	-17.96112
370.717	-22.46796
370.935	48.57135
371.152	10.2463
371.37	46.34876
371.588	53.07271
371.805	91.5287
372.022	24.9064
372.24	32.79304
372.457	-15.69937
372.675	41.81349
372.892	40.7387
373.11	32.7779
373.327	-5.54745
373.544	-26.98453
373.762	15.8923
373.979	46.31301
374.196	-45.05087
374.414	30.56746
374.631	-40.51599
374.848	71.16295
375.066	78.99707
375.283	18.13518
375.5	-22.4784
375.717	89.17098
375.935	-19.0966
376.152	33.95668
376.369	18.13518
376.586	17.03033
376.803	58.74384
377.02	67.79837
377.238	46.33801
377.455	56.51866
377.672	36.18338
377.889	-10.06413
378.106	-32.65947
378.323	-32.62274
378.54	-1.03419
378.757	71.10536
378.974	51.97052
379.191	75.6315
379.408	18.14779
379.625	35.04141
379.842	46.32015
380.059	39.57364
380.276	18.14078
380.493	72.28126
380.71	37.27459
380.927	24.8968
381.143	-21.3271
381.36	73.4021
381.577	13.63646
381.794	38.4464
382.011	7.99363
382.228	135.25317
382.444	31.64054
382.661	-22.48538
382.878	0.09399
383.095	20.40688
383.311	19.25571
383.528	59.8521
383.745	33.94091
383.962	49.78053
384.178	18.13378
384.395	-26.99603
384.612	6.86286
384.828	87.96057
385.045	0.09405
385.261	78.97582
385.478	32.80824
385.695	62.1455
385.911	-14.57324
386.128	-7.79862
386.344	27.18943
386.561	-16.83365
386.777	26.02771
386.994	14.76357
387.21	49.70734
387.427	21.53997
387.643	53.12392
387.86	39.61199
388.076	4.6032
388.292	36.1792
388.509	84.60864
388.725	4.60747
388.942	-20.20942
389.158	2.35002
389.374	11.3636
389.591	46.32372
389.807	10.25145
390.023	86.90916
390.239	57.61484
390.456	55.35912
390.672	62.09995
390.888	-50.70875
391.104	55.31225
391.321	93.70654
391.537	20.40136
391.753	38.42564
391.969	26.02771
392.185	23.76437
392.401	44.05842
392.618	33.9095
392.834	58.69861
393.05	59.85441
393.266	32.79684
393.482	98.2256
393.698	72.27567
393.914	65.46825
394.13	14.72786
394.346	69.9903
394.562	56.47282
394.778	13.63277
394.994	76.81673
395.21	32.82348
395.426	57.63488
395.642	50.87323
395.858	23.76986
396.073	68.93345
396.289	46.29877
396.505	82.40561
396.721	38.41973
396.937	58.68058
397.153	24.91121
397.369	38.42712
397.584	30.55562
397.8	53.1075
398.016	92.48786
398.232	140.91998
398.447	111.7223
398.663	29.40755
398.879	52.04913
399.094	108.24179
399.31	103.84334
399.526	78.98796
399.741	35.04006
399.957	86.90916
400.173	21.54498
400.388	40.69299
400.604	47.50728
400.82	55.33139
401.035	59.83827
401.251	11.36753
401.466	32.79304
401.682	54.19679
401.897	40.67262
402.113	48.54335
402.328	45.17095
402.544	47.43757
402.759	32.77916
402.974	49.66532
403.19	63.19939
403.405	128.53453
403.621	83.44497
403.836	94.83624
404.051	-3.28908
404.267	86.85571
404.482	65.44562
404.697	54.20931
404.913	67.71214
405.128	109.54329
405.343	93.64879
405.559	40.67106
405.774	35.03063
405.989	82.34542
406.204	125.00868
406.42	103.75947
406.635	54.17806
406.85	113.81574
407.065	81.22024
407.28	20.39348
407.495	78.97279
407.71	146.48299
407.926	47.40662
408.141	93.67041
408.356	189.28907
408.571	92.5412
408.786	83.51226
409.001	121.61636
409.216	117.35337
409.431	102.64252
409.646	97.03591
409.861	90.269
410.076	110.50337
410.291	45.16749
410.506	85.71742
410.721	57.57934
410.936	58.71667
411.15	76.76632
411.365	49.63492
411.58	143.27779
411.795	145.43763
412.01	120.66394
412.225	123.93291
412.439	100.2544
412.654	147.55554
412.869	95.82591
413.084	41.80383
413.299	87.94036
413.513	93.68846
413.728	86.80914
413.943	74.45683
414.157	187.10115
414.372	101.47472
414.587	98.10474
414.801	98.03722
415.016	94.64359
415.231	75.63732
415.445	93.64879
415.66	97.00608
415.874	125.07545
416.089	64.37954
416.304	90.22395
416.518	109.44609
416.733	169.94627
416.947	112.748
417.162	95.77832
417.376	81.27648
417.59	67.65767
417.805	114.91319
418.019	113.88546
418.234	99.15733
418.448	88.00108
418.663	74.4654
418.877	100.44663
419.091	120.69639
419.306	179.20482
419.52	98.04845
419.734	116.16107
419.949	159.91059
420.163	39.52646
420.377	146.53345
420.591	69.94461
420.806	58.69184
421.02	82.35807
421.234	68.83779
421.448	90.1825
421.663	67.71474
421.877	92.40649
422.091	58.69635
422.305	132.90907
422.519	99.218
422.733	77.80567
422.947	99.2294
423.161	158.92165
423.376	161.19309
423.59	152.95439
423.804	125.13768
424.018	118.44212
424.232	93.50551
424.446	147.43209
424.66	119.58075
424.874	152.23882
425.088	46.32193
425.302	185.43496
425.515	102.63069
425.729	185.85013
425.943	104.78399
426.157	93.60564
426.371	178.00678
426.585	160.94729
426.799	217.18313
427.013	94.7087
427.226	84.6249
427.44	130.82304
427.654	122.78132
427.868	101.46307
428.081	114.95269
428.295	130.81299
428.509	115.93519
428.723	122.80943
428.936	134.06788
429.15	161.20546
429.364	114.88691
429.577	122.8752
429.791	117.34885
430.005	179.04058
430.218	141.92985
430.432	111.50424
430.645	148.63873
430.859	66.53287
431.073	96.95403
431.286	58.66709
431.5	102.60315
431.713	153.16933
431.927	165.55382
432.14	163.40246
432.354	102.50131
432.567	84.58917
432.781	105.95218
432.994	126.19419
433.207	149.71567
433.421	100.29646
433.634	147.7194
433.848	197.07831
434.061	100.42342
434.274	118.32414
434.488	87.98756
434.701	184.65038
434.914	137.5006
435.127	150.91244
435.341	150.8837
435.554	89.06831
435.767	113.76798
435.98	128.31405
436.194	111.55528
436.407	83.46736
436.62	128.45091
436.833	122.8282
437.046	157.53383
437.259	152.13961
437.473	216.19393
437.686	114.93951
437.899	120.58078
438.112	162.11837
438.325	127.28367
438.538	93.52334
438.751	84.52771
438.964	251.5079
439.177	136.33519
439.39	93.54476
439.603	191.43909
439.816	158.75185
440.029	76.73678
440.242	200.18522
440.455	127.39563
440.668	166.53057
440.881	100.22769
441.094	138.64016
441.306	162.11837
441.519	158.70961
441.732	190.12914
441.945	179.10204
442.158	198.00439
442.37	162.09987
442.583	153.2571
442.796	154.14545
443.009	185.7157
443.222	199.34483
443.434	175.78828
443.647	180.14204
443.86	191.36621
444.072	228.50983
444.285	164.41882
444.498	207.17369
444.71	150.87221
444.923	187.80905
445.136	180.12148
445.348	187.98715
445.561	202.62554
445.773	172.30743
445.986	164.28138
446.198	208.16063
446.411	172.26149
446.623	211.71591
446.836	130.56355
447.048	137.4061
447.261	205.94246
447.473	186.68851
447.686	196.89106
447.898	226.07909
448.11	211.25128
448.323	564.63565
448.535	249.81831
448.748	217.19138
448.96	111.52974
449.172	208.12906
449.385	218.40344
449.597	182.23351
449.809	161.04529
450.021	184.65742
450.234	226.01924
450.446	239.2913
450.658	237.47566
450.87	189.06559
451.083	327.07503
451.295	233.98053
451.507	217.01868
451.719	185.5539
451.931	186.66735
452.143	219.28325
452.356	205.60816
452.568	172.08511
452.78	306.97553
452.992	181.10574
453.204	237.18808
453.416	227.19913
453.628	273.67646
453.84	177.89139
454.052	204.69727
454.264	314.63697
454.476	188.90101
454.688	257.61954
454.9	196.7719
455.112	216.1363
455.324	201.35889
455.536	257.60001
455.747	183.20904
455.959	206.75066
456.171	271.84435
456.383	205.90338
456.595	286.72955
456.807	256.21886
457.018	180.01209
457.23	224.86545
457.442	240.65464
457.654	195.56315
457.865	216.91226
458.077	250.72947
458.289	219.34964
458.501	216.03778
458.712	194.76762
458.924	224.91645
459.136	244.15195
459.347	239.59849
459.559	224.94197
459.77	228.30186
459.982	230.57647
460.194	341.24104
460.405	256.16101
460.617	288.6189
460.828	264.05787
461.04	202.24278
461.251	277.69459
461.463	408.91714
461.674	304.50879
461.886	363.65971
462.097	242.77461
462.309	229.42174
462.52	235.05607
462.731	225.89136
462.943	277.39163
463.154	195.68866
463.366	292.09128
463.577	246.29875
463.788	268.43001
464	250.61599
464.211	260.2734
464.422	252.73932
464.634	262.81108
464.845	296.53924
465.056	261.64414
465.267	312.23741
465.478	257.3568
465.69	285.35249
465.901	292.89052
466.112	267.47311
466.323	233.74205
466.534	282.02023
466.745	298.50557
466.957	313.24868
467.168	222.51694
467.379	234.83447
467.59	293.14282
467.801	268.30932
468.012	243.81096
468.223	312.06193
468.434	303.31125
468.645	234.78151
468.856	333.1053
469.067	281.92485
469.278	282.91512
469.489	273.90544
469.7	315.49367
469.911	295.63323
470.122	302.27343
470.333	280.95513
470.543	324.4008
470.754	316.66958
470.965	348.00081
471.176	285.05325
471.387	359.25149
471.598	297.57844
471.808	306.44489
472.019	320.04364
472.23	378.284
472.441	368.12106
472.651	303.09519
472.862	294.06184
473.073	326.49892
473.283	351.29565
473.494	341.17725
473.705	331.3952
473.915	438.64578
474.126	412.16463
474.337	354.61571
474.547	354.54953
474.758	348.72628
474.968	366.69122
475.179	312.12034
475.389	419.16286
475.6	506.97635
475.81	435.41862
476.021	418.03448
476.231	344.21631
476.442	404.73724
476.652	438.49875
476.863	374.2411
477.073	349.2082
477.284	330.86263
477.494	400.1789
477.704	438.12464
477.915	410.16739
478.125	374.58838
478.335	410.70164
478.546	452.96738
478.756	427.95376
478.966	423.69254
479.177	493.96493
479.387	427.18961
479.597	480.4532
479.807	461.93647
480.018	411.41756
480.228	446.98892
480.438	448.0181
480.648	450.5245
480.858	580.05716
481.068	486.86779
481.279	499.22493
481.489	436.59325
481.699	511.60334
481.909	491.54347
482.119	487.65616
482.329	512.43103
482.539	572.28529
482.749	522.64444
482.959	553.67683
483.169	522.24252
483.379	613.52229
483.589	587.82771
483.799	505.47745
484.009	509.08385
484.219	564.96614
484.429	573.35089
484.639	552.73034
484.849	581.37615
485.059	617.8356
485.268	579.63595
485.478	571.86948
485.688	598.69946
485.898	574.33277
486.108	597.96256
486.317	635.27593
486.527	585.72042
486.737	600.82471
486.947	662.3389
487.156	640.61603
487.366	657.96598
487.576	595.64028
487.785	627.31232
487.995	636.08245
488.205	586.42242
488.414	605.2922
488.624	686.493
488.834	637.9715
489.043	642.25468
489.253	654.31777
489.462	644.16231
489.672	657.55485
489.882	603.49655
490.091	713.51872
490.301	622.19211
490.51	618.94172
490.72	682.15047
490.929	624.08731
491.138	671.53153
491.348	669.90384
491.557	585.01929
491.767	685.11703
491.976	729.89083
492.185	683.25476
492.395	702.72069
492.604	747.07971
492.813	803.77607
493.023	703.7984
493.232	653.79846
493.441	760.43638
493.651	725.00792
493.86	719.26184
494.069	724.92979
494.278	714.54427
494.488	750.06306
494.697	674.89071
494.906	736.47539
495.115	735.74209
495.324	730.60383
495.533	738.07786
495.743	705.67514
495.952	731.36059
496.161	749.84881
496.37	705.12951
496.579	715.92858
496.788	754.23223
496.997	808.96855
497.206	848.45437
497.415	749.01522
497.624	828.02336
497.833	766.38836
498.042	856.97012
498.251	806.6568
498.46	835.47447
498.669	838.32551
498.878	840.43367
499.087	746.57203
499.296	830.86913
499.504	871.79948
499.713	896.01849
499.922	858.46396
500.131	805.0582
500.34	849.13153
500.549	909.0914
500.757	844.99275
500.966	790.25593
501.175	841.03128
501.384	850.75704
501.592	879.52802
501.801	895.38518
502.01	901.55378
502.218	922.64595
502.427	821.19823
502.636	882.03236
502.844	869.74656
503.053	848.65167
503.262	863.04034
503.47	860.66359
503.679	930.46996
503.887	814.72149
504.096	877.70536
504.304	893.41196
504.513	839.72086
504.721	847.05495
504.93	885.79755
505.138	872.79247
505.347	949.89571
505.555	905.62098
505.764	893.19119
505.972	799.72485
506.18	920.28869
506.389	880.61653
506.597	862.39959
506.806	851.62967
507.014	886.32706
507.222	928.01749
507.431	936.78146
507.639	924.30935
507.847	899.64593
508.055	962.2559
508.264	896.54536
508.472	960.87096
508.68	880.17987
508.888	915.89909
509.096	926.47762
509.305	963.08016
509.513	902.84048
509.721	901.42715
509.929	847.40461
510.137	926.56468
510.345	921.70211
510.553	941.19558
510.762	922.99308
510.97	920.67075
511.178	913.60888
511.386	926.49986
511.594	944.58694
511.802	962.16745
512.01	916.64149
512.218	871.7262
512.426	922.3771
512.634	1033.32707
512.842	992.4962
513.049	1066.75684
513.257	920.9911
513.465	958.88298
513.673	918.41359
513.881	971.02641
514.089	952.51349
514.297	932.66157
514.504	986.45086
514.712	936.61742
514.92	953.70336
515.128	999.49059
515.336	953.50843
515.543	952.41022
515.751	1017.53183
515.959	1009.99644
516.166	975.40453
516.374	978.41662
516.582	1023.42091
516.789	1057.76041
516.997	1024.38546
517.205	988.60468
517.412	943.35298
517.62	972.22309
517.827	1032.41396
518.035	1033.83086
518.243	986.55437
518.45	946.37373
518.658	994.35291
518.865	980.26071
519.073	953.57531
519.28	1027.27168
519.488	1000.38432
519.695	1013.33705
519.902	954.67051
520.11	954.50321
520.317	1019.78777
520.525	1005.25828
520.732	958.71522
520.939	951.22678
521.147	975.37042
521.354	908.7383
521.561	1019.30929
521.769	948.82829
521.976	889.80864
522.183	972.564
522.391	989.6642
522.598	1002.79034
522.805	962.23482
523.012	931.3369
523.219	1010.30417
523.427	1004.90746
523.634	927.78984
523.841	1009.45717
524.048	1022.05476
524.255	1029.02789
524.462	1002.72039
524.669	976.63981
524.877	976.29423
525.084	1011.67947
525.291	976.22605
525.498	998.10226
525.705	1066.53437
525.912	1013.76036
526.119	1021.48403
526.326	999.12615
526.533	1025.82069
526.74	956.98576
526.947	1026.93745
527.153	1031.28523
527.36	1005.43405
527.567	1058.81584
527.774	1046.58145
527.981	976.84353
528.188	999.42139
528.395	995.30787
528.602	989.28446
528.808	986.14083
529.015	1014.07792
529.222	1007.02422
529.429	1044.62011
529.635	981.59368
529.842	1051.38688
530.049	1036.85714
530.256	999.02186
530.462	996.55813
530.669	1094.53669
530.876	1074.32686
531.082	986.27853
531.289	1024.54938
531.495	1041.38122
531.702	1042.90599
531.909	1049.42153
532.115	1067.73766
532.322	1087.05063
532.528	1115.2069
532.735	1068.16274
532.941	1029.87011
533.148	1062.01847
533.354	1117.66069
533.561	1031.32112
533.767	1048.1843
533.974	1043.05067
534.18	1071.73375
534.387	1057.65014
534.593	1000.14989
534.799	1053.56996
535.006	1046.24054
535.212	1082.16181
535.418	1148.30185
535.625	1010.0219
535.831	1092.05845
536.037	1072.89972
536.244	1104.84901
536.45	1045.92857
536.656	1044.32412
536.862	1053.20631
537.068	1000.89537
537.275	1086.82507
537.481	1043.12307
537.687	1082.23652
537.893	1046.39977
538.099	1116.97493
538.305	1072.26882
538.512	1036.71288
538.718	1168.06656
538.924	1126.38901
539.13	1154.28296
539.336	1085.9996
539.542	1128.68581
539.748	1105.44311
539.954	1019.85858
540.16	1114.55052
540.366	1121.295
540.572	1090.47499
540.778	1020.1067
540.984	1066.59206
541.19	1030.89106
541.396	1027.15058
541.602	1027.61356
541.807	1126.27254
542.013	1033.11175
542.219	1047.31034
542.425	1099.68679
542.631	1057.31991
542.837	1037.73334
543.042	1072.4366
543.248	1052.07884
543.454	1029.31461
543.66	1091.86891
543.865	1090.77745
544.071	1019.19111
544.277	1053.53776
544.483	1051.71442
544.688	1081.23137
544.894	1086.9754
545.1	977.29255
545.305	1157.81483
545.511	1104.16217
545.716	1038.28554
545.922	1097.84689
546.128	1092.58169
546.333	1089.79945
546.539	1077.34071
546.744	1118.44935
546.95	1075.98813
547.155	1052.26214
547.361	1083.67167
547.566	1121.6363
547.772	1132.85062
547.977	1050.84277
548.182	1013.76192
548.388	1080.43812
548.593	1089.04459
548.799	1095.32502
549.004	1059.24678
549.209	1085.95944
549.415	1050.11383
549.62	1075.12021
549.825	1158.66458
550.031	1036.85714
550.236	1074.15449
550.441	1071.32577
550.646	1145.06109
550.852	1073.38417
551.057	1083.77695
551.262	1144.53593
551.467	1198.44798
551.672	1102.42682
551.878	1086.18801
552.083	1049.02237
552.288	1078.20814
552.493	1049.60336
552.698	1119.53934
552.903	1122.29981
553.108	1082.49834
553.313	1226.82739
553.518	1112.33092
553.723	1108.40873
553.928	1113.32329
554.133	1077.87262
554.338	1156.30205
554.543	1119.77089
554.748	1156.0251
554.953	1133.00679
555.158	1114.71881
555.363	1116.23081
555.568	1138.3775
555.773	1113.38301
555.978	1141.30493
556.182	1109.04122
556.387	1165.00109
556.592	1074.22853
556.797	1082.91079
557.002	1172.50426
557.206	1155.64933
557.411	1137.4838
557.616	1132.81161
557.821	1107.6096
558.025	1063.35548
558.23	1112.44789
558.435	1031.16241
558.64	1204.58108
558.844	1145.80741
559.049	1179.39798
559.253	1172.90807
559.458	1127.91744
559.663	1197.27933
559.867	1127.32363
560.072	1109.76647
560.276	1121.642
560.481	1157.84597
560.685	1129.11486
560.89	1083.36482
561.094	1129.12142
561.299	1032.3253
561.503	1173.19526
561.708	1121.2565
561.912	1089.4215
562.117	1091.11493
562.321	1152.68092
562.525	1106.91591
562.73	1119.11584
562.934	1142.4216
563.139	1116.55332
563.343	1207.70692
563.547	1107.43305
563.752	1134.87386
563.956	1055.02527
564.16	1162.50231
564.364	1118.51889
564.569	1106.21722
564.773	1068.73722
564.977	1164.64039
565.181	1148.2228
565.385	1112.46288
565.59	1154.9574
565.794	1162.10312
565.998	1047.31695
566.202	1143.70743
566.406	1127.94632
566.61	1172.42363
566.814	1150.44115
567.018	1091.67962
567.222	1081.93792
567.426	1090.43687
567.63	1089.94728
567.834	1020.67563
568.038	1049.86022
568.242	1048.94993
568.446	1070.95596
568.65	1137.79062
568.854	1106.07614
569.058	1121.4809
569.262	1101.61419
569.466	1058.26509
569.67	1110.26488
569.874	1084.60557
570.078	1116.32388
570.281	1032.36094
570.485	1092.50455
570.689	1064.40991
570.893	1118.25685
571.097	1057.31584
571.3	1124.05384
571.504	1090.43723
571.708	1026.20059
571.912	1040.79395
572.115	1063.20874
572.319	1090.21088
572.523	1130.74893
572.726	1177.82722
572.93	1153.05674
573.133	1081.67718
573.337	1105.96202
573.541	1055.75947
573.744	1132.18884
573.948	1063.22123
574.151	1103.30018
574.355	1098.78586
574.558	1051.16896
574.762	1124.55828
574.965	1089.19523
575.169	1132.65566
575.372	1173.43186
575.576	1089.75931
575.779	1130.78791
575.983	1113.03724
576.186	1077.35237
576.389	1071.80806
576.593	1068.58988
576.796	1074.41381
577	1155.90658
577.203	1099.53528
577.406	1105.0404
577.609	1113.59082
577.813	1084.15649
578.016	1103.33828
578.219	1066.62886
578.423	1051.75087
578.626	1157.8273
578.829	1044.83293
579.032	1107.31861
579.235	1129.81485
579.438	1108.37057
579.642	1117.45127
579.845	1062.37436
580.048	1075.61616
580.251	1127.8317
580.454	1142.07941
580.657	1065.55343
580.86	1104.84901
581.063	1086.45767
581.266	1048.80252
581.469	1068.34768
581.672	1154.52064
581.875	1157.28583
582.078	1105.07871
582.281	986.47935
582.484	1079.53345
582.687	1141.63873
582.89	1042.28425
583.093	1011.57363
583.296	1055.13615
583.499	1109.02071
583.702	1028.92054
583.904	1028.69522
584.107	1041.52528
584.31	1125.41543
584.513	1083.88957
584.716	1058.04543
584.918	1104.16217
585.121	1130.39859
585.324	1030.3
585.527	1074.22853
585.729	1070.34556
585.932	1176.13342
586.135	1052.04257
586.337	1090.28629
586.54	1046.18209
586.743	1147.41
586.945	1092.58169
587.148	1078.66585
587.35	1054.37018
587.553	1071.80806
587.755	1060.44838
587.958	1038.76728
588.161	1079.74851
588.363	1156.89731
588.566	1024.76337
588.768	1039.00644
588.971	986.17524
589.173	1046.1096
589.375	1114.62758
589.578	1072.45407
589.78	1070.23451
589.983	1167.54651
590.185	1096.95862
590.387	1076.41008
590.59	1090.25436
590.792	1033.59545
590.994	1037.07384
591.197	937.92395
591.399	1042.86547
591.601	991.66967
591.803	960.33473
592.006	973.56246
592.208	1082.64719
592.41	997.99802
592.612	1006.08052
592.815	950.02393
593.017	958.81585
593.219	979.16701
593.421	986.99388
593.623	1028.77754
593.825	1017.04914
594.027	1003.74397
594.229	1010.19889
594.432	944.01555
594.634	1053.53776
594.836	992.77293
595.038	972.40103
595.24	937.58138
595.442	967.85759
595.644	988.29412
595.846	954.771
596.048	947.63381
596.249	942.6545
596.451	986.31297
596.653	1003.45678
596.855	910.32303
597.057	929.24353
597.259	1016.62138
597.461	971.74738
597.663	1001.19796
597.864	955.14019
598.066	1020.28422
598.268	935.48947
598.47	907.70559
598.671	924.11702
598.873	903.80981
599.075	949.45873
599.277	953.07461
599.478	915.51389
599.68	990.79285
599.882	912.67521
600.083	905.33579
600.285	953.34139
600.487	929.72036
600.688	923.31098
600.89	1018.91615
601.091	982.6936
601.293	934.62344
601.494	962.28988
601.696	927.23879
601.898	1014.60634
602.099	935.94874
602.301	985.55731
602.502	1035.98087
602.703	1007.16463
602.905	928.2782
603.106	954.86405
603.308	888.83722
603.509	983.58138
603.711	890.46386
603.912	919.44599
604.113	1031.03426
604.315	1016.75703
604.516	948.99446
604.717	986.48536
604.919	1004.87244
605.12	989.45693
605.321	998.48522
605.522	954.704
605.724	967.92489
605.925	985.15005
606.126	1031.96888
606.327	1035.61142
606.528	1027.79207
606.729	1032.80981
606.931	994.35291
607.132	1020.56876
607.333	983.54157
607.534	1046.03512
607.735	986.55437
607.936	971.63961
608.137	1013.23144
608.338	999.94132
608.539	1015.45636
608.74	918.22303
608.941	965.93907
609.142	1071.36281
609.343	999.16093
609.544	1008.04736
609.745	978.85899
609.946	1027.97083
610.147	1046.61782
610.348	992.08225
610.549	1097.24962
610.75	1005.54589
610.95	1003.67402
611.151	1050.3316
611.352	1045.78002
611.553	1013.58671
611.754	1090.55054
611.954	1011.08085
612.155	1051.89674
612.356	997.9633
612.557	1054.26368
612.757	1076.85598
612.958	999.36981
613.159	1098.83652
613.359	1052.87925
613.56	1045.27061
613.761	1059.54025
613.961	1021.30619
614.162	1046.65419
614.362	1032.71793
614.563	1086.18517
614.764	1016.29819
614.964	963.5998
615.165	1034.56355
615.365	986.92516
615.566	1059.18427
615.766	993.48597
615.967	1059.22117
616.167	1008.33516
616.368	1003.56919
616.568	1071.05097
616.768	1074.4509
616.969	998.17181
617.169	1078.66585
617.37	1058.00886
617.57	1103.04944
617.77	1002.3015
617.971	1060.90602
618.171	1014.07877
618.371	1047.52829
618.571	1051.49916
618.772	1056.52128
618.972	983.54688
619.172	994.30289
619.372	1005.33642
619.573	1001.80158
619.773	1031.87611
619.973	964.79642
620.173	999.50041
620.373	964.01991
620.573	1020.07122
620.774	1067.12845
620.974	964.97957
621.174	986.92516
621.374	982.85894
621.574	927.21487
621.774	1008.82482
621.974	1022.43475
622.174	1007.58677
622.374	1023.70595
622.574	976.08981
622.774	989.38791
622.974	994.85637
623.174	1012.10372
623.374	1072.2175
623.574	978.72199
623.774	1002.54568
623.973	994.45735
624.173	935.88302
624.373	970.31486
624.573	1004.30488
624.773	935.62051
624.973	984.12474
625.172	954.89732
625.372	1014.78296
625.572	1032.16269
625.772	1032.59375
625.971	973.73197
626.171	1013.76036
626.371	975.19999
626.57	925.59899
626.77	963.43088
626.97	981.01365
627.169	926.11887
627.369	1032.91798
627.569	996.28585
627.768	963.22849
627.968	963.19479
628.167	950.79071
628.367	1012.94973
628.566	961.13997
628.766	978.38221
628.965	974.54888
629.165	953.40818
629.364	973.31774
629.564	944.74613
629.763	1057.14655
629.963	1003.18552
630.162	982.14243
630.362	988.5356
630.561	925.12047
630.76	957.85519
630.96	900.77431
631.159	945.1779
631.358	972.22309
631.558	936.47578
631.757	956.06772
631.956	947.60067
632.155	969.89786
632.355	913.67505
632.554	947.999
632.753	901.69808
632.952	978.4826
633.152	1003.7032
633.351	947.1697
633.55	1024.87049
633.749	948.16535
633.948	926.87023
634.147	941.36058
634.346	958.2249
634.545	915.51389
634.744	922.24783
634.944	957.09591
635.143	954.93868
635.342	947.1697
635.541	926.56468
635.74	967.67473
635.939	949.89571
636.138	949.49433
636.336	975.26812
636.535	897.4782
636.734	945.01165
636.933	988.6738
637.132	848.62175
637.331	1005.61006
637.53	906.60872
637.729	953.475
637.928	879.33126
638.126	963.49842
638.325	949.86221
638.524	938.14
638.723	931.66401
638.921	948.69924
639.12	944.11784
639.319	927.69241
639.518	874.41306
639.716	1002.05779
639.915	889.49244
640.114	921.96172
640.312	943.4852
640.511	877.96834
640.71	910.4829
640.908	905.62098
641.107	968.76934
641.305	935.51153
641.504	914.70681
641.702	877.93756
641.901	958.32593
642.099	974.54888
642.298	936.11319
642.496	998.9743
642.695	900.77431
642.893	901.12384
643.092	872.4553
643.29	915.86694
643.489	885.44862
643.687	921.12006
643.885	855.44837
644.084	866.57729
644.282	936.68301
644.48	889.6845
644.679	912.02839
644.877	888.92834
645.075	906.22537
645.274	916.93066
645.472	876.29891
645.67	864.56636
645.868	956.7602
646.067	889.6845
646.265	965.2375
646.463	902.66776
646.661	920.50887
646.859	919.73491
647.057	943.4852
647.256	904.65199
647.454	838.4148
647.652	922.12428
647.85	866.42392
648.048	876.13048
648.246	862.36909
648.444	888.36449
648.642	947.20998
648.84	934.84461
649.038	902.9994
649.236	898.56433
649.434	907.32182
649.632	870.44552
649.83	894.1621
650.028	914.35433
650.226	893.0023
650.423	906.92914
650.621	860.32545
650.819	855.19834
651.017	898.54923
651.215	857.42625
651.413	877.89141
651.61	864.10725
651.808	809.25506
652.006	837.25639
652.204	826.35375
652.401	883.84803
652.599	876.63891
652.797	837.49566
652.995	848.57498
653.192	774.47802
653.39	836.15747
653.588	850.44062
653.785	835.92022
653.983	844.94781
654.18	836.6932
654.378	872.0164
654.576	833.51617
654.773	862.09495
654.971	867.36848
655.168	792.34237
655.366	825.43066
655.563	892.31467
655.761	809.65749
655.958	795.80867
656.156	770.73552
656.353	821.51817
656.55	823.92064
656.748	894.76233
656.945	722.15536
657.143	750.94988
657.34	831.82055
657.537	918.28967
657.735	787.43293
657.932	781.19394
658.129	841.1512
658.326	740.30822
658.524	797.75823
658.721	732.38393
658.918	748.74771
659.115	764.35062
659.313	829.91751
659.51	809.9459
659.707	792.28459
659.904	866.12266
660.101	793.66873
660.298	723.48994
660.496	813.59372
660.693	757.36669
660.89	771.17536
661.087	767.84493
661.284	751.16442
661.481	762.58498
661.678	733.32842
661.875	761.93144
662.072	756.67067
662.269	741.38357
662.466	791.7485
662.663	808.32796
662.86	790.42406
663.057	815.73376
663.254	801.51706
663.45	723.81706
663.647	783.75975
663.844	762.80379
664.041	756.23918
664.238	784.61967
664.435	812.69643
664.631	824.87341
664.828	798.83001
665.025	773.70919
665.222	813.36177
665.419	755.29995
665.615	795.49903
665.812	757.7177
666.009	839.57336
666.205	811.79899
666.402	763.05926
666.599	757.07067
666.795	817.6742
666.992	788.89839
667.188	771.0377
667.385	825.07838
667.582	811.30645
667.778	778.2814
667.975	801.31639
668.171	830.51489
668.368	741.14486
668.564	872.65015
668.761	860.56947
668.957	802.85905
669.154	836.6932
669.35	904.15972
669.547	799.98728
669.743	813.85626
669.939	767.79007
670.136	767.4735
670.332	856.87673
670.528	809.02579
670.725	822.58796
670.921	773.62608
671.117	766.11573
671.314	817.75776
671.51	791.86113
671.706	804.23204
671.902	772.79877
672.099	796.26073
672.295	809.34116
672.491	790.02708
672.687	781.32142
672.883	850.24933
673.08	819.84451
673.276	831.96847
673.472	856.48564
673.668	797.55919
673.864	778.74215
674.06	796.28905
674.256	805.68936
674.452	871.92338
674.648	774.33982
674.844	798.04323
675.04	782.29468
675.236	816.19673
675.432	824.93193
675.628	850.19968
675.824	778.5757
676.02	793.58355
676.216	797.30385
676.412	830.2206
676.608	835.80179
676.804	815.12631
676.999	764.45978
677.195	799.02141
677.391	798.18603
677.587	823.65766
677.783	773.07378
677.978	765.36958
678.174	846.43726
678.37	798.65922
678.566	782.80956
678.761	772.79877
678.957	770.81784
679.153	790.02708
679.348	735.53161
679.544	821.43082
679.74	820.10765
679.935	797.19057
680.131	789.15213
680.327	786.6973
680.522	787.82599
680.718	758.87291
680.913	753.42088
681.109	804.10157
681.304	786.50089
681.5	758.81873
681.695	823.40751
681.891	749.3641
682.086	760.10976
682.282	747.34797
682.477	1084.99692
682.672	745.76398
682.868	740.20217
683.063	766.24661
683.259	729.65869
683.454	774.09155
683.649	777.20788
683.845	755.62349
684.04	728.99983
684.235	728.50553
684.43	757.85303
684.626	770.65386
684.821	678.64116
685.016	766.19157
685.211	800.57441
685.407	778.32654
685.602	764.73318
685.797	807.33854
685.992	746.73206
686.187	716.77421
686.382	663.80537
686.577	707.00554
686.773	707.46329
686.968	789.99889
687.163	716.49243
687.358	780.55414
687.553	776.84614
687.748	709.4401
687.943	724.79973
688.138	787.17588
688.333	720.77058
688.528	707.87986
688.723	788.78582
688.918	711.82513
689.112	730.78325
689.307	769.05587
689.502	686.80597
689.697	681.2187
689.892	729.89296
690.087	744.90251
690.282	679.20709
690.476	696.65521
690.671	615.51149
690.866	659.67494
691.061	656.3614
691.255	656.17197
691.45	672.92577
691.645	678.54321
691.84	659.41336
692.034	639.21674
692.229	703.77312
692.424	575.12668
692.618	690.83412
692.813	644.98781
693.007	683.08201
693.202	681.65852
693.397	636.56532
693.591	651.87219
693.786	694.32071
693.98	582.18666
694.175	621.01863
694.369	658.22906
694.564	635.57511
694.758	637.18703
694.953	568.6526
695.147	611.86058
695.342	642.1383
695.536	647.05679
695.73	614.04945
695.925	589.02037
696.119	608.17021
696.313	646.77006
696.508	578.61343
696.702	570.63876
696.896	542.09513
697.091	544.3703
697.285	558.60752
697.479	632.32696
697.673	525.66467
697.868	583.16643
698.062	593.1464
698.256	606.35161
698.45	592.38447
698.644	559.91813
698.839	615.64562
699.033	608.18889
699.227	584.3792
699.421	629.90948
699.615	624.63058
699.809	512.33717
700.003	626.729
700.197	618.19547
700.391	619.95778
700.585	575.2935
700.779	589.95568
700.973	592.34133
701.167	607.90095
701.361	578.50857
701.555	631.93752
701.749	516.56615
701.943	566.68595
702.137	578.76049
702.331	576.48388
702.525	631.89183
702.718	570.27845
702.912	579.28801
703.106	652.20234
703.3	533.79689
703.494	599.13491
703.687	577.46494
703.881	598.18063
704.075	633.61697
704.269	601.06447
704.462	523.63868
704.656	546.03682
704.85	624.58517
705.043	557.33858
705.237	584.74114
705.431	574.56277
705.624	597.05154
705.818	623.4111
706.012	639.12377
706.205	554.29965
706.399	583.25117
706.592	587.82771
706.786	601.2393
706.979	581.07755
707.173	559.39016
707.366	565.20853
707.56	587.40701
707.753	589.02037
707.947	622.71295
708.14	612.63895
708.333	607.6581
708.527	538.01684
708.72	593.36188
708.914	536.59439
709.107	579.24568
709.3	523.44693
709.494	651.40442
709.687	578.22248
709.88	607.90095
710.073	564.75942
710.267	517.52382
710.46	544.21178
710.653	682.69474
710.846	535.79933
711.04	583.35723
711.233	599.22228
711.426	586.74212
711.619	616.90888
711.812	625.30564
712.005	588.23516
712.198	572.28529
712.391	554.38036
712.585	579.62753
712.778	589.29973
712.971	570.65429
713.164	570.07044
713.357	594.92384
713.55	569.00444
713.743	573.76952
713.936	566.97547
714.129	589.93424
714.322	638.13392
714.514	598.82984
714.707	646.04028
714.9	588.0848
715.093	602.3679
715.286	615.82481
715.479	633.61697
715.672	644.01587
715.864	555.69054
716.057	615.2439
716.25	578.80256
716.443	599.20043
716.636	599.85864
716.828	569.27461
717.021	646.77006
717.214	612.19325
717.406	636.06066
717.599	560.90317
717.792	740.79837
717.984	608.38884
718.177	579.8884
718.37	538.1548
718.562	574.62562
718.755	564.00245
718.947	556.71728
719.14	528.991
719.333	608.1667
719.525	578.41303
719.718	510.56844
719.91	545.08795
720.103	538.45131
720.295	488.04977
720.487	485.82895
720.68	499.04166
720.872	513.8423
721.065	452.6652
721.257	487.79901
721.449	474.2176
721.642	467.27349
721.834	417.44898
722.026	445.21052
722.219	458.07246
722.411	379.75141
722.603	394.67008
722.796	435.9322
722.988	365.60402
723.18	387.71357
723.372	426.4954
723.565	368.85138
723.757	399.03589
723.949	464.82626
724.141	393.39571
724.333	411.69308
724.525	376.85913
724.717	335.49797
724.91	373.36291
725.102	350.73429
725.294	346.53561
725.486	346.7423
725.678	382.58749
725.87	397.10427
726.062	453.92845
726.254	393.23559
726.446	442.44279
726.638	432.89988
726.83	345.9376
727.022	344.42133
727.213	372.20732
727.405	374.14429
727.597	361.13226
727.789	399.03589
727.981	357.88154
728.173	380.32971
728.365	387.77099
728.556	380.35809
728.748	346.6001
728.94	416.7211
729.132	359.19771
729.324	315.45823
729.515	337.80472
729.707	367.88769
729.899	378.11442
730.09	384.55903
730.282	394.91992
730.474	389.99769
730.665	285.02133
730.857	421.78014
731.049	335.52302
731.24	394.42141
731.432	365.74021
731.623	322.10812
731.815	335.49797
732.006	290.74452
732.198	357.88154
732.389	398.24815
732.581	343.13993
732.772	318.81938
732.964	307.59591
733.155	365.75385
733.347	326.5111
733.538	342.35692
733.729	372.15208
733.921	362.66645
734.112	310.74816
734.304	306.64022
734.495	360.13835
734.686	298.47214
734.877	340.08696
735.069	355.75765
735.26	371.10706
735.451	373.46008
735.643	354.61571
735.834	374.88194
736.025	313.02631
736.216	341.08809
736.407	381.45858
736.599	375.57709
736.79	361.33424
736.981	327.97032
737.172	334.27019
737.363	356.7665
737.554	388.13135
737.745	385.61562
737.936	407.07005
738.127	394.72876
738.318	410.38047
738.509	383.90288
738.7	371.24506
738.891	383.81675
739.082	406.87359
739.273	424.7582
739.464	390.15681
739.655	382.28863
739.846	420.33803
740.037	407.97164
740.228	378.97514
740.419	414.88042
740.609	371.91799
740.8	447.80352
740.991	414.77258
741.182	383.53066
741.373	474.91508
741.563	408.01702
741.754	353.10578
741.945	402.54006
742.136	459.43852
742.326	413.70545
742.517	399.5737
742.708	416.79813
742.898	455.7654
743.089	408.42713
743.28	376.21781
743.47	440.21901
743.661	509.38314
743.851	377.97353
744.042	454.13071
744.233	461.06408
744.423	450.37447
744.614	427.20549
744.804	445.45003
744.995	379.92
745.185	488.33754
745.376	429.14536
745.566	472.48336
745.756	433.80363
745.947	433.37075
746.137	370.02043
746.328	455.09137
746.518	468.28139
746.708	425.47786
746.899	404.73724
747.089	503.77632
747.279	505.25907
747.47	493.2935
747.66	470.07129
747.85	481.36913
748.04	486.31318
748.231	415.59333
748.421	477.13754
748.611	443.91595
748.801	413.64402
748.991	408.70702
749.182	488.12159
749.372	447.98504
749.562	399.43687
749.752	387.64187
749.942	486.7427
750.132	438.09222
750.322	441.67413
750.512	413.50607
750.702	417.74096
750.892	444.79787
751.082	438.28701
751.272	435.70661
751.462	454.06321
751.652	387.90044
751.842	469.39295
752.032	458.53047
752.222	453.64305
752.412	368.71463
752.602	463.3904
752.792	449.36226
752.981	481.40456
753.171	457.56752
753.361	380.18806
753.551	414.64959
753.741	415.79324
753.93	446.84044
754.12	460.26136
754.31	441.23323
754.5	506.4824
754.689	470.97447
754.879	410.13701
755.069	462.75724
755.258	396.94173
755.448	421.23263
755.638	426.9362
755.827	387.00252
756.017	416.78271
756.206	433.90027
756.396	362.00486
756.586	386.60032
756.775	444.83078
756.965	461.42369
757.154	451.28644
757.344	374.35197
757.533	442.72114
757.723	414.4503
757.912	429.16124
758.101	403.9093
758.291	458.81235
758.48	419.5056
758.67	470.43496
758.859	411.83134
759.048	413.55201
759.238	416.64419
759.427	451.87144
759.616	362.99779
759.806	390.05549
759.995	443.94891
760.184	375.92689
760.373	389.15876
760.563	408.09273
760.752	431.52995
760.941	396.88275
761.13	406.73799
761.319	446.34018
761.509	377.8611
761.698	433.7393
761.887	395.87209
762.076	384.47341
762.265	450.50781
762.454	385.98888
762.643	424.61674
762.832	352.0046
763.021	314.31822
763.21	287.11517
763.399	287.32936
763.588	387.92924
763.777	302.21656
763.966	392.9701
764.155	321.05207
764.344	318.97479
764.533	293.01099
764.722	253.92426
764.911	307.72274
765.1	292.01448
765.288	254.16385
765.477	343.76918
765.666	269.83205
765.855	271.78312
766.044	246.2708
766.232	214.77879
766.421	224.85696
766.61	257.26966
766.799	199.12514
766.987	302.38741
767.176	169.75986
767.365	176.55502
767.553	196.76447
767.742	272.01837
767.931	220.42818
768.119	240.45502
768.308	193.56503
768.497	195.6443
768.685	196.69769
768.874	267.60435
769.062	203.73138
769.251	211.51474
769.439	208.32695
769.628	262.01878
769.816	189.05124
770.005	210.24292
770.193	203.56919
770.382	212.53071
770.57	224.03444
770.758	205.90338
770.947	212.68373
771.135	227.15616
771.323	250.65378
771.512	230.65513
771.7	213.73156
771.888	311.31942
772.077	198.91468
772.265	274.29685
772.453	298.76274
772.642	312.09697
772.83	227.07896
773.018	298.60601
773.206	312.12034
773.394	341.34329
773.583	319.98367
773.771	302.15976
773.959	319.09471
774.147	310.94548
774.335	291.88317
774.523	317.57235
774.711	246.26149
774.899	307.81522
775.087	290.58168
775.275	346.83301
775.463	275.07401
775.651	290.72277
775.839	291.99257
776.027	250.54055
776.215	321.24472
776.403	252.74881
776.591	380.11738
776.779	275.35317
776.967	325.32259
777.155	314.10703
777.343	319.82812
777.531	377.0982
777.718	334.54491
777.906	333.81742
778.094	335.62335
778.282	314.38885
778.47	391.73745
778.657	356.92641
778.845	356.95311
779.033	329.95655
779.22	363.29388
779.408	356.51439
779.596	358.35082
779.783	328.19257
779.971	318.84325
780.159	308.89773
780.346	348.98617
780.534	238.03874
780.722	350.44261
780.909	379.04558
781.097	331.23353
781.284	331.35784
781.472	347.83177
781.659	354.62896
781.847	357.77491
782.034	315.50549
782.222	362.28731
782.409	315.48186
782.597	295.09026
782.784	319.88788
782.971	390.54942
783.159	336.61353
783.346	401.53092
783.533	329.21083
783.721	336.71413
783.908	386.04654
784.095	286.52412
784.283	294.12784
784.47	312.10865
784.657	309.55166
784.844	378.04393
785.032	295.52183
785.219	383.60204
785.406	283.05305
785.593	275.13586
785.78	325.44397
785.968	308.82816
786.155	296.61728
786.342	352.37171
786.529	332.13866
786.716	313.36619
786.903	325.82239
787.09	324.05029
787.277	279.74212
787.464	342.36973
787.651	347.97476
787.838	260.54598
788.025	277.54803
788.212	322.27698
788.399	288.71646
788.586	333.51622
788.773	293.2089
788.96	261.64414
789.147	267.24206
789.334	299.84624
789.521	310.9106
789.707	316.75278
789.894	284.2454
790.081	283.11688
790.268	275.07401
790.455	325.95745
790.641	294.53723
790.828	264.72989
791.015	320.09168
791.202	350.35055
791.388	303.26567
791.575	284.28818
791.762	271.99786
791.948	248.45337
792.135	356.09111
792.322	277.7891
792.508	353.44752
792.695	284.45979
792.881	274.43169
793.068	240.50935
793.254	259.48659
793.441	290.77717
793.627	287.783
793.814	293.18686
794	269.59836
794.187	283.05305
794.373	284.23471
794.56	322.2166
794.746	273.02379
794.933	251.60223
795.119	286.75123
795.305	339.18711
795.492	277.54803
795.678	307.84995
795.864	270.90999
796.051	316.50364
796.237	269.65918
796.423	258.52412
796.61	264.00821
796.796	200.12473
796.982	240.52747
797.168	308.96741
797.355	232.72836
797.541	237.20598
797.727	290.01975
797.913	225.80641
798.099	297.3892
798.285	242.83873
798.471	330.24103
798.658	275.14618
798.844	344.82111
799.03	202.27321
799.216	264.09764
799.402	276.25336
799.588	285.41692
799.774	270.90999
799.96	259.81955
800.146	322.20453
800.332	275.43629
800.518	267.46303
800.704	241.49202
800.89	210.26674
801.075	288.66223
801.261	204.71277
801.447	232.58806
801.633	186.63915
801.819	314.436
802.005	221.39772
802.19	288.82514
802.376	370.51785
802.562	286.33049
802.748	317.81014
802.934	223.78806
803.119	263.1579
803.305	242.75631
803.491	275.37394
803.676	241.68294
803.862	270.90999
804.048	237.35852
804.233	260.69286
804.419	207.01628
804.605	231.6351
804.79	260.70267
804.976	217.12547
805.161	304.45152
805.347	255.10986
805.532	244.8835
805.718	297.69017
805.903	291.0174
806.089	283.18081
806.274	182.08218
806.46	210.37816
806.645	257.39561
806.831	246.32672
807.016	257.51226
807.201	230.52414
807.387	232.6406
807.572	269.46693
807.757	229.26592
807.943	222.69341
808.128	215.87429
808.313	264.1275
808.499	220.31167
808.684	302.39882
808.869	305.29411
809.054	284.21334
809.24	225.96802
809.425	211.3229
809.61	236.05991
809.795	253.08271
809.98	220.35323
810.165	264.96723
810.35	276.69096
810.536	241.64649
810.721	194.53879
810.906	239.59849
811.091	279.85799
811.276	230.29837
811.461	266.24439
811.646	215.98046
811.831	250.71053
812.016	273.07518
812.201	256.19957
812.386	208.05815
812.571	154.20393
812.756	294.34862
812.941	207.85429
813.125	277.71557
813.31	197.89954
813.495	251.99168
813.68	266.38475
813.865	284.28818
814.05	221.60689
814.234	232.67568
814.419	258.51437
814.604	276.70144
814.789	217.00228
814.973	285.44917
815.158	218.13856
815.343	196.98078
815.528	233.00194
815.712	240.47312
815.897	200.10207
816.081	179.97801
816.266	198.98966
816.451	216.03778
816.635	273.2711
816.82	235.90003
817.004	160.94729
817.189	261.01814
817.374	212.44249
817.558	232.71079
817.743	180.16949
817.927	238.43338
818.111	226.19055
818.296	211.65139
818.48	211.52276
818.665	212.66758
818.849	255.34127
819.034	245.09571
819.218	151.94258
819.402	167.71563
819.587	168.87594
819.771	225.09558
819.955	168.96607
820.14	207.01628
820.324	184.62228
820.508	180.01891
820.692	216.10343
820.877	144.07702
821.061	210.53005
821.245	125.00392
821.429	128.4215
821.613	185.7157
821.798	118.36035
821.982	195.62953
822.166	175.70099
822.35	230.82183
822.534	213.76397
822.718	212.65145
822.902	184.76312
823.086	121.68127
823.27	134.05253
823.454	140.82296
823.638	108.22521
823.822	104.86014
824.006	137.45329
824.19	147.46568
824.374	199.36004
824.558	131.80612
824.742	153.1635
824.926	188.00861
825.11	111.5425
825.294	173.5291
825.477	78.88822
825.661	154.30962
825.845	120.51637
826.029	104.79598
826.213	140.78536
826.396	125.16648
826.58	120.53475
826.764	155.45606
826.948	92.45241
827.131	103.62865
827.315	148.65571
827.499	184.73489
827.682	162.26065
827.866	107.10909
828.05	171.24391
828.233	129.48553
828.417	100.33865
828.6	165.4845
828.784	195.89667
828.967	192.56835
829.151	178.0272
829.335	192.60508
829.518	135.18083
829.701	145.11113
829.885	158.873
830.068	184.68556
830.252	199.13269
830.435	130.7178
830.619	187.84458
830.802	126.18937
830.985	156.49539
831.169	155.51548
831.352	132.98014
831.535	132.9954
831.719	163.19084
831.902	126.17492
832.085	153.14599
832.269	209.28138
832.452	103.78339
832.635	146.43265
832.818	129.63388
833.002	134.0423
833.185	192.53166
833.368	190.46264
833.551	116.09431
833.734	146.39359
833.917	181.34685
834.1	185.90695
834.284	141.88659
834.467	167.77945
834.65	148.75792
834.833	150.88944
835.016	194.70099
835.199	165.49079
835.382	162.14305
835.565	111.55954
835.748	143.03646
835.931	74.44256
836.114	181.11259
836.297	131.79607
836.479	161.00849
836.662	192.42922
836.845	146.46619
837.028	94.60395
837.211	110.38098
837.394	201.45821
837.577	169.05007
837.759	158.84872
837.942	145.18262
838.125	147.40414
838.308	165.49709
838.49	114.92196
838.673	448.86517
838.856	113.68151
839.039	172.36004
839.221	102.54039
839.404	119.34777
839.587	87.82649
839.769	152.14543
839.952	199.14024
840.134	95.75277
840.317	124.00877
840.499	110.40622
840.682	190.14356
840.865	181.25013
841.047	166.53057
841.23	109.28266
841.412	178.87064
841.595	200.44381
841.777	145.33746
841.959	107.08039
842.142	135.1499
842.324	176.65529
842.507	170.06271
842.689	195.85196
842.871	147.61189
843.054	187.83747
843.236	157.67764
843.418	211.65139
843.601	141.97864
843.783	141.8974
843.965	174.53868
844.147	138.56598
844.33	156.36481
844.512	130.7278
844.694	158.85479
844.876	131.81619
845.059	137.35381
845.241	201.42761
845.423	153.17517
845.605	198.238
845.787	185.67339
845.969	174.45901
846.151	212.7403
846.333	126.33937
846.515	178.00678
846.697	193.47699
846.879	206.9379
847.061	146.4159
847.243	175.63405
847.425	182.39964
847.607	103.75549
847.789	168.87594
847.971	135.13446
848.153	153.1285
848.335	163.25287
848.517	146.42148
848.699	150.99311
848.881	162.06293
849.062	155.37905
849.244	156.51922
849.426	154.28609
849.608	106.04567
849.789	132.85342
849.971	182.27494
850.153	167.83063
850.335	130.70781
850.516	113.76798
850.698	154.27433
850.88	95.81857
851.061	169.99795
851.243	182.27494
851.425	123.87152
851.606	128.49021
851.788	145.28756
851.969	129.48553
852.151	102.5639
852.333	147.60625
852.514	164.45645
852.696	218.3619
852.877	161.14372
853.059	174.53868
853.24	185.65931
853.422	156.32342
853.603	219.56642
853.784	193.77901
853.966	143.00378
854.147	155.46199
854.329	29.40528
854.51	109.25767
854.691	124.94691
854.873	129.4806
855.054	144.29708
855.235	192.44383
855.416	112.64892
855.598	133.96579
855.779	146.5054
855.96	118.37395
856.141	126.25212
856.323	181.31226
856.504	207.05556
856.685	149.92149
856.866	158.83053
857.047	131.82122
857.228	74.47971
857.409	87.96057
857.591	105.88346
857.772	137.3904
857.953	145.31527
858.134	119.3523
858.315	181.38148
858.496	189.03689
858.677	132.95473
858.858	130.70781
859.039	122.85638
859.22	203.66176
859.401	83.44178
859.582	143.11293
859.762	105.89152
859.943	141.96779
860.124	160.03891
860.305	72.06859
860.486	110.43994
860.667	118.32866
860.848	112.67901
861.028	143.12388
861.209	121.854
861.39	136.21577
861.571	120.54854
861.751	177.97958
861.932	157.58166
862.113	107.03541
862.293	131.90699
862.474	165.50339
862.655	122.76261
862.835	123.98503
863.016	95.80026
863.197	78.94251
863.377	114.90442
863.558	139.75855
863.738	99.29039
863.919	145.24883
864.099	218.4617
864.28	161.21782
864.46	202.42585
864.641	138.53955
864.821	172.32057
865.002	65.43057
865.182	72.16746
865.363	113.83314
865.543	149.93298
865.723	93.54833
865.904	101.52145
866.084	103.65235
866.264	175.64743
866.445	110.41464
866.625	126.17492
866.805	135.08821
866.986	147.5837
867.166	154.46912
867.346	194.67881
867.526	92.48076
867.707	100.3233
867.887	130.63803
868.067	130.75282
868.247	218.37851
868.427	165.50968
868.607	100.24295
868.788	99.18384
868.968	69.94729
869.148	172.3403
869.328	166.5432
869.508	110.49913
869.688	94.6942
869.868	92.36424
870.048	142.03299
870.228	65.42305
870.408	74.3432
870.588	91.34883
870.768	173.34393
870.948	110.56706
871.128	114.89567
871.307	109.42083
871.487	160.11872
871.667	201.48118
871.847	87.97068
872.027	110.46105
872.207	75.60822
872.387	63.22125
872.566	96.9429
872.746	145.3708
872.926	108.18796
873.106	117.23175
873.285	145.34857
873.465	96.89848
873.645	186.97239
873.824	46.30411
874.004	38.43453
874.184	76.71909
874.363	92.4914
874.543	113.868
874.723	78.95764
874.902	137.35903
875.082	81.18291
875.261	135.24282
875.441	146.38801
875.62	91.33133
875.8	137.56385
875.979	111.57233
876.159	112.75664
876.338	101.53315
876.518	104.78399
876.697	109.34949
876.876	94.73048
877.056	116.04552
877.235	104.90844
877.415	65.39804
877.594	47.42117
877.773	98.08219
877.953	94.7087
878.132	143.13484
878.311	150.9758
878.49	113.91169
878.67	73.29221
878.849	149.9675
879.028	138.61894
879.207	122.69262
879.387	146.43824
879.566	121.70451
879.745	105.97246
879.924	137.4061
880.103	143.11293
880.282	68.79821
880.461	65.39804
880.64	84.57296
880.819	120.55314
880.998	106.07016
881.178	137.4743
881.357	110.48643
881.536	99.24843
881.715	74.46826
881.893	33.91995
882.072	92.50917
882.251	157.6476
882.43	20.36062
882.609	73.28941
882.788	145.43763
882.967	75.6315
883.146	31.67587
883.325	82.32964
883.503	102.56782
883.682	82.38657
883.861	86.90581
884.04	130.74781
884.219	139.83359
884.397	103.72368
884.576	138.45523
884.755	87.98081
884.933	75.65774
885.112	62.08562
885.291	90.23779
885.469	138.63486
885.648	66.62746
885.827	93.59129
886.005	117.2992
886.184	98.14616
886.363	58.73251
886.541	83.56702
886.72	72.20894
886.898	323.26042
887.077	41.7974
887.255	114.92635
887.434	89.03767
887.612	29.39963
887.791	60.98314
887.969	51.94051
888.147	36.17223
888.326	63.20424
888.504	105.98057
888.682	137.59027
888.861	44.05503
889.039	129.65872
889.218	49.68439
889.396	44.04149
889.574	130.79793
889.752	36.14721
889.931	89.0139
890.109	13.62016
890.287	59.81299
890.465	106.02937
890.643	55.30588
890.822	90.17561
891	63.22125
891.178	108.24594
891.356	58.68734
891.534	65.40803
891.712	71.10536
891.89	123.94711
892.068	139.81212
892.247	81.24208
892.425	118.34224
892.603	80.08888
892.781	42.90557
892.959	51.9505
893.137	76.72793
893.314	72.1785
893.492	75.5734
893.67	45.15882
893.848	98.10474
894.026	125.11372
894.204	107.12551
894.382	109.39142
894.56	91.42611
894.738	33.87442
894.915	32.79937
895.093	77.88636
895.271	11.36622
895.449	98.10098
895.626	179.28735
895.804	103.70383
895.982	143.05282
896.16	60.96436
896.337	91.36285
896.515	-7.79892
896.693	29.39398
896.87	76.67501
897.048	101.58399
897.225	42.92865
897.403	144.24184
897.581	102.59922
897.758	168.89523
897.936	31.63933
898.113	82.37073
898.291	59.8061
898.468	83.46736
898.646	156.83137
898.823	107.09268
899.001	144.41359
899.178	82.34227
899.356	73.30904
899.533	57.63488
899.71	47.44488
899.888	67.68357
900.065	82.26671
900.242	18.14008
900.42	80.1474
900.597	68.86427
900.774	67.72776
900.952	31.68812
901.129	65.48841
901.306	80.0981
901.483	57.53517
901.661	47.45951
901.838	108.32082
902.015	75.5734
902.192	79.04579
902.369	23.77994
902.546	128.5296
902.723	40.63831
902.901	45.22496
903.078	47.44853
903.255	39.57059
903.432	58.74611
903.609	75.5821
903.786	58.71441
903.963	21.52663
904.14	42.87931
904.317	57.5882
904.494	20.40847
904.671	46.30945
904.848	53.15275
905.024	32.81331
905.201	78.92439
905.378	35.05762
905.555	76.69262
905.732	93.63799
905.909	45.24073
906.086	68.85367
906.262	5.73417
906.439	63.22125
906.616	21.52497
906.793	62.08801
906.969	13.63594
907.146	50.79292
907.323	28.3014
907.5	0.094
907.676	65.49851
907.853	83.60583
908.03	55.30588
908.206	40.68045
908.383	40.71186
908.559	39.59355
908.736	35.06304
908.912	31.68322
909.089	20.3982
909.266	69.89378
909.442	5.73328
909.619	-12.31531
909.795	55.33565
909.972	47.47234
910.148	71.06715
910.324	51.93053
910.501	14.76014
910.677	54.22812
910.854	38.44194
911.03	17.00597
911.206	2.35121
911.383	20.38641
911.559	12.50043
911.735	89.10928
911.912	37.32055
912.088	84.68032
912.264	90.32467
912.44	103.75151
912.617	57.55502
912.793	54.2344
912.969	58.71215
913.145	39.56601
913.321	55.36553
913.498	51.90863
913.674	80.07966
913.85	59.81758
914.026	24.90352
914.202	36.11405
914.378	-6.67021
914.554	32.81077
914.73	39.53101
914.906	82.40878
915.082	61.01847
915.258	2.34948
915.434	24.9064
915.61	6.8626
915.786	2.35039
915.962	128.64827
916.138	48.5807
916.314	20.40215
916.49	9.12445
916.665	86.96957
916.841	53.0911
917.017	33.91342
917.193	3.47918
917.369	6.86605
917.545	65.49094
917.72	20.40293
917.896	-6.68339
918.072	41.82155
918.247	28.28064
918.423	45.20052
918.599	2.35102
918.775	-2.1611
918.95	27.15579
919.126	57.6104
919.301	70.03351
919.477	67.69395
919.653	28.29811
919.828	4.6048
920.004	51.9525
920.179	55.33352
920.355	178.86386
920.53	36.14721
920.706	45.23722
920.881	-40.53795
921.057	40.67419
921.232	48.58445
921.408	80.15975
921.583	-5.54831
921.759	60.97374
921.934	41.83771
922.109	21.52247
922.285	89.29184
922.46	56.49462
922.635	18.13868
922.811	66.65835
922.986	46.34159
923.161	38.4212
923.336	-14.58398
923.512	41.81994
923.687	41.83609
923.862	30.55326
924.037	77.88336
924.212	65.47833
924.388	31.67955
924.563	27.15056
924.738	47.42663
924.913	48.62014
925.088	-2.16052
925.263	26.0137
925.438	63.22856
925.613	97.02471
925.788	48.60509
925.963	41.84743
926.138	67.84837
926.313	55.325
926.488	11.36885
926.663	20.41242
926.838	23.76711
927.013	37.31478
927.188	21.50921
927.363	64.34977
927.538	42.94187
927.713	-3.29162
927.888	-37.13828
928.062	66.63518
928.237	57.56385
928.412	-13.44837
928.587	17.00859
928.761	45.17269
928.936	17.00793
929.111	-4.4225
929.286	2.35102
929.46	-5.54595
929.635	59.88213
929.81	61.02555
929.984	17.02306
930.159	-39.35984
930.334	-54.02141
930.508	24.91989
930.683	20.39505
930.857	24.92375
931.032	61.01847
931.206	12.49947
931.381	61.03737
931.556	-13.45255
931.73	48.62579
931.904	29.41889
932.079	48.59007
932.253	62.13829
932.428	-2.16135
932.602	32.80697
932.777	61.06817
932.951	-3.28959
933.125	-23.58286
933.3	81.20156
933.474	39.57059
933.648	14.7516
933.823	-4.41975
933.997	24.90833
934.171	22.68059
934.345	-5.54573
934.52	-3.29086
934.694	6.86074
934.868	-23.63044
935.042	5.73928
935.217	1.22237
935.391	-51.87099
935.565	0.09406
935.739	24.91314
935.913	-32.61392
936.087	11.36316
936.261	17.00793
936.435	9.11739
936.609	5.73372
936.783	4.60765
936.957	24.90256
937.131	21.53997
937.305	-15.68546
937.479	-24.74428
937.653	10.25225
937.827	46.35952
938.001	20.41401
938.175	6.86074
938.349	20.39584
938.523	37.31766
938.697	13.64228
938.87	-3.29226
939.044	3.47877
939.218	-13.45464
939.392	101.43978
939.566	36.19317
939.739	-3.28946
939.913	42.95679
940.087	-32.63917
940.261	-46.20191
940.434	-8.93597
940.608	1.22322
940.782	7.99549
940.955	-22.48538
941.129	5.7324
941.302	19.26016
941.476	-49.60583
941.65	-80.06782
941.823	11.37411
941.997	88.018
942.17	9.12197
942.344	-30.42433
942.517	37.29178
942.691	-22.47579
942.864	1.22312
943.038	-20.22586
943.211	3.47945
943.385	-5.54702
943.558	9.11282
943.731	142.99834
943.905	-1.03411
944.078	30.53205
944.251	-2.1621
944.425	-36.02467
944.598	-4.41634
944.771	-10.07904
944.945	4.60801
945.118	27.18416
945.291	14.75672
945.464	-40.54424
945.638	-24.73852
945.811	39.56295
945.984	-32.60889
946.157	15.89353
946.33	-17.9646
946.503	-22.50201
946.677	1.2237
946.85	12.51302
947.023	47.43392
947.196	-36.00515
947.369	-1.03539
947.542	-43.92991
947.715	19.26982
947.888	-17.95279
948.061	21.50673
948.234	17.00269
948.407	4.60729
948.58	-66.52963
948.753	22.66475
948.926	-16.82974
949.099	-27.01493
949.271	0.09396
949.444	10.25066
949.617	-11.19391
949.79	-56.35462
949.963	17.0343
950.136	31.69795
950.308	40.73238
950.481	-43.92821
950.654	33.94879
950.827	4.60747
950.999	-15.70362
951.172	30.53205
951.345	-48.42456
951.517	-2.16261
951.69	-7.81374
951.863	-19.08994
952.035	65.54409
952.208	21.53079
952.381	12.51497
952.553	-74.49949
952.726	24.92761
952.898	-43.9214
953.071	-11.19174
953.243	-17.95695
953.416	-13.4604
953.588	55.35698
953.761	-41.69333
953.933	-19.08108
954.106	49.77666
954.278	6.86872
954.45	-8.93009
954.623	4.60783
954.795	-49.55002
954.967	5.73306
955.14	-24.74525
955.312	-42.77706
955.484	22.68059
955.657	-38.34481
955.829	-5.54402
956.001	4.60711
956.173	-28.09598
956.346	-16.83235
956.518	-51.86291
956.69	5.73505
956.862	-38.28804
957.034	-3.29175
957.207	-22.49237
957.379	50.89691
957.551	7.99054
957.723	2.3503
957.895	-7.80888
958.067	2.35002
958.239	-6.68105
958.411	-20.21254
958.583	12.49754
958.755	22.66211
958.927	5.74062
959.099	5.73328
959.271	91.46493
959.443	-55.21171
959.615	-14.58682
959.787	45.204
959.959	-48.43769
960.13	20.40136
960.302	54.26798
960.474	-7.81313
960.646	-43.91459
960.818	4.60729
960.99	48.67688
961.161	-52.94612
961.333	9.11915
961.505	-13.43798
961.677	-2.16236
961.848	-23.60017
962.02	-29.23542
962.192	-63.14811
962.363	-48.41893
962.535	41.83286
962.707	-31.52942
962.878	-25.85876
963.05	48.62391
963.221	-1.03355
963.393	-6.67381
963.564	-23.56745
963.736	4.60551
963.907	36.22685
964.079	13.62593
964.25	0.09394
964.422	35.05356
964.593	-4.42129
964.765	49.75348
964.936	38.42712
965.108	-20.21959
965.279	-38.27616
965.45	0.09402
965.622	-12.31626
965.793	38.45532
965.964	-56.33494
966.136	33.96591
966.307	-84.57744
966.478	15.88738
966.65	-30.37347
966.821	-7.80434
966.992	3.47945
967.163	-5.54745
967.334	-43.9248
967.506	0.094
967.677	3.48026
967.848	4.60533
968.019	7.9924
968.19	17.0224
968.361	-54.09246
968.532	-12.31674
968.703	-29.26832
968.874	33.9501
969.045	30.53793
969.216	9.11176
969.387	-72.1603
969.558	22.65598
969.729	2.35102
969.9	-19.07961
970.071	-23.61481
970.242	-36.02886
970.413	3.48012
970.584	-39.41463
970.755	-15.69512
970.926	-24.73277
971.097	-6.67201
971.267	0.09396
971.438	-1.03447
971.609	32.80063
971.78	13.63488
971.951	-68.78807
972.121	-20.22272
972.292	84.6934
972.463	39.59202
972.633	-29.23091
972.804	-7.80615
972.975	-11.19695
973.145	-21.36512
973.316	-41.67712
973.487	-17.95071
973.657	44.10266
973.828	-7.80736
973.998	5.73772
974.169	-41.65935
974.339	-39.41922
974.51	21.52331
974.68	79.0214
974.851	44.1455
975.021	-19.107
975.192	29.44624
975.362	46.31836
975.533	-19.10328
975.703	15.89292
975.874	-10.06452
976.044	26.05692
976.214	-28.10465
976.385	27.16417
976.555	-19.09142
976.725	-12.32677
976.896	-17.94241
977.066	-26.97306
977.236	-6.67846
977.406	60.97844
977.577	-21.35267
977.747	22.64112
977.917	-29.23655
978.087	18.15976
978.257	-24.74621
978.427	53.18377
978.598	22.6709
978.768	-15.70058
978.938	-38.23921
979.108	44.11121
979.278	7.98438
979.448	-5.54061
979.618	-16.83561
979.788	37.32921
979.958	1.22199
980.128	-24.73756
980.298	-59.71953
980.468	-49.60004
980.638	11.37895
980.808	13.64972
980.978	1.22199
981.148	24.92182
981.317	24.90736
981.487	-20.22586
981.657	28.31566
981.827	14.76243
981.997	-10.06648
982.167	-19.08994
982.336	-5.54895
982.506	-5.55067
982.676	56.51647
982.846	23.75707
983.015	15.88554
983.185	-3.29188
983.355	39.55381
983.524	52.0067
983.694	-15.70423
983.864	3.47689
984.033	-20.22664
984.203	-8.9377
984.372	-10.06296
984.542	-5.54766
984.712	-39.38869
984.881	-34.90476
985.051	-1.03483
985.22	0.09405
985.39	-6.67742
985.559	-1.03375
985.728	-70.98317
985.898	32.81331
986.067	-2.16202
986.237	28.31126
986.406	-1.03427
986.576	-28.10032
986.745	11.38957
986.914	-12.31769
987.084	44.09072
987.253	-6.67898
987.422	-1.03455
987.591	42.97008
987.761	-41.71446
987.93	14.75843
988.099	6.86074
988.268	0.09397
988.438	-4.42181
988.607	12.50623
988.776	-6.67329
988.945	19.27131
989.114	-19.08256
989.283	9.12303
989.452	-72.06547
989.621	21.52829
989.791	-39.41157
989.96	-14.57381
990.129	9.11492
990.298	-15.7024
990.467	-43.92821
990.636	-57.47355
990.805	14.77388
990.974	-6.67742
991.142	31.70779
991.311	13.63752
991.48	46.3667
991.649	19.26982
991.818	5.74218
991.987	-54.02557
992.156	-20.21959
992.325	0.09408
992.493	-13.45935
992.662	353.13199
992.831	18.1499
993	49.64251
993.168	-4.42181
993.337	-5.54852
993.506	12.49899
993.675	-17.96669
993.843	9.12162
994.012	-20.20552
994.181	24.88914
994.349	30.56154
994.518	-39.3826
994.686	-21.35185
994.855	10.23998
995.024	35.07389
995.192	54.24697
995.361	-8.9332
995.529	-4.41941
995.698	-29.24108
995.866	15.88432
996.035	-40.51912
996.203	38.45978
996.371	32.81966
996.54	33.94353
996.708	90.37709
996.877	28.30688
997.045	-24.74428
997.213	-5.54917
997.382	-14.58625
997.55	17.02372
997.718	14.73857
997.887	20.41639
998.055	10.24432
998.223	3.4777
998.391	52.00871
998.56	5.73661
998.728	-22.47318
998.896	3.48012
999.064	30.57813
999.232	41.81994
999.401	62.12869
999.569	2.34966
999.737	-20.23924
999.905	15.88616
1000.073	-29.23882
1000.241	47.50175
1000.409	-24.74236
1000.577	41.81994
1000.745	1.22303
1000.913	22.66211
1001.081	-45.01084
1001.249	11.36972
1001.417	61.00196
1001.585	-36.03026
1001.753	65.50862
1001.921	-48.44896
1002.089	-7.80132
1002.256	-38.25544
1002.424	17.01121
1002.592	-11.19174
1002.76	37.28604
1002.928	-43.96239
1003.096	-14.58285
1003.263	4.6064
1003.431	-16.82324
1003.599	6.86712
1003.767	31.72383
1003.934	1.2218
1004.102	-19.107
1004.27	17.00597
1004.437	42.96509
1004.605	-1.03471
1004.773	14.76014
1004.94	42.94519
1005.108	-13.44733
1005.275	10.24907
1005.443	-12.31484
1005.61	5.73483
1005.778	-3.29201
1005.945	-71.05203
1006.113	-83.43714
1006.28	6.85757
1006.448	12.50381
1006.615	65.51621
1006.783	33.94485
1006.95	20.40372
1007.118	2.35121
1007.285	-21.34688
1007.452	3.47864
1007.62	-7.80253
1007.787	-24.75102
1007.954	3.48093
1008.122	14.74479
1008.289	-25.86778
1008.456	-30.36524
1008.623	-13.45516
1008.791	21.53997
1008.958	21.51998
1009.125	-60.79052
1009.292	0.09402
1009.459	-13.44577
1009.627	-45.08589
1009.794	71.1547
1009.961	29.40302
1010.128	-50.70875
1010.295	29.42457
1010.462	-6.67691
1010.629	44.10266
1010.796	8.00171
1010.963	-68.74004
1011.13	0.09398
1011.297	39.57823
1011.464	-67.66543
1011.631	-6.67768
1011.798	44.11292
1011.965	-47.33568
1012.132	46.34876
1012.299	1.2227
1012.466	-8.92768
1012.633	39.59355
1012.799	-14.57324
1012.966	-19.07152
1013.133	-24.76453
1013.3	5.73306
1013.467	-32.63285
1013.633	-30.38524
1013.8	-12.32247
1013.967	-8.94466
1014.134	0.09395
1014.3	-28.11661
1014.467	-16.8487
1014.634	14.76014
1014.8	-33.75417
1014.967	13.62803
1015.134	-7.81222
1015.3	21.53579
1015.467	17.02042
1015.633	33.9712
1015.8	9.11915
1015.966	-31.53802
1016.133	-10.06922
1016.3	36.20297
1016.466	11.38469
1016.632	44.06012
1016.799	37.34657
1016.965	46.3703
1017.132	-1.03387
1017.298	9.11282
1017.465	-20.21333
1017.631	-1.03439
1017.797	-5.54874
1017.964	6.86074
1018.13	36.19457
1018.296	-8.93735
1018.463	-40.50816
1018.629	35.09157
1018.795	11.36885
1018.961	14.767
1019.128	26.05187
1019.294	23.78914
1019.46	-12.32008
1019.626	-22.48712
1019.792	4.6089
1019.959	48.60133
1020.125	-31.50738
1020.291	-43.93674
1020.457	-40.53952
1020.623	-12.32294
1020.789	-19.08108
1020.955	-27.00547
1021.121	-15.69694
1021.287	17.01384
1021.453	13.62803
1021.619	-42.80691
1021.785	26.04178
1021.951	-3.29277
1022.117	-81.15436
1022.283	-28.11552
1022.449	44.13005
1022.615	-32.66965
1022.781	32.8019
1022.946	41.82801
1023.112	-36.06816
1023.278	64.37705
1023.444	-16.83692
1023.61	-7.80676
1023.775	-64.25621
1023.941	-19.07667
1024.107	-46.2109
1024.273	-47.30262
1024.438	-3.28984
1024.604	-12.31579
1024.77	120.47052
1024.935	40.7229
1025.101	5.73839
1025.267	35.07389
1025.432	19.26833
1025.598	-20.22586
1025.763	53.0952
1025.929	6.86392
1026.095	6.86605
1026.26	-21.33615
1026.426	-50.69891
1026.591	-2.1642
1026.757	66.64804
1026.922	24.92761
1027.087	-20.2188
1027.253	-60.85163
1027.418	-7.80949
1027.584	1.22237
1027.749	-95.87821
1027.914	3.47703
1028.08	11.38646
1028.245	6.86446
1028.41	-5.54659
1028.576	-42.80525
1028.741	10.24669
1028.906	5.73861
1029.072	21.52829
1029.237	-23.61756
1029.402	-40.53323
1029.567	12.48219
1029.732	47.50544
1029.898	-3.28997
1030.063	-2.16252
1030.228	-65.36867
1030.393	13.62278
1030.558	7.99085
1030.723	21.52497
1030.888	11.36972
1031.053	-4.42164
1031.218	-19.09586
1031.383	53.12803
1031.548	10.24511
1031.713	-20.22037
1031.878	17.02306
1032.043	-38.29845
1032.208	6.86765
1032.373	12.51935
1032.538	-8.92046
1032.703	13.63013
1032.868	-42.78037
1033.033	-36.04988
1033.198	-67.66543
1033.362	10.24828
1033.527	3.47837
1033.692	6.85968
1033.857	-3.29022
1034.021	24.90736
1034.186	-34.92378
1034.351	41.86203
1034.516	23.77902
1034.68	-28.10791
1034.845	9.12977
1035.01	-42.78202
1035.174	-21.35185
1035.339	-1.03447
1035.504	-30.37111
1035.668	17.01056
1035.833	-23.60382
1035.997	-29.24447
1036.162	-6.68157
1036.326	-16.84477
1036.491	-36.02886
1036.655	-11.19261
1036.82	-40.49255
1036.984	30.55444
1037.149	-31.50006
1037.313	-38.25839
1037.478	58.71893
1037.642	11.37192
1037.807	-34.92242
1037.971	39.56753
1038.135	-34.88177
1038.3	-22.48276
1038.464	-51.74868
1038.628	6.85889
1038.792	-8.92115
1038.957	9.12799
1039.121	1.22091
1039.285	-11.18481
1039.449	-19.08403
1039.614	9.12515
1039.778	-25.85576
1039.942	103.81933
1040.106	-17.97158
1040.27	-4.41907
1040.434	37.30614
1040.599	-66.51928
1040.763	-11.18525
1040.927	-13.44577
1041.091	17.02372
1041.255	-11.19521
1041.419	-33.75809
1041.583	-83.50858
1041.747	20.39427
1041.911	-7.80253
1042.075	-12.31198
1042.239	-81.20791
1042.403	9.12409
1042.567	45.21273
1042.731	44.11463
1042.894	-11.19261
1043.058	12.5072
1043.222	38.48665
1043.386	-2.16437
1043.55	-6.67716
1043.714	5.73883
1043.877	-8.9263
1044.041	-4.41464
1044.205	5.74375
1044.369	-13.44837
1044.532	-86.8725
1044.696	-28.10465
1044.86	-23.63044
1045.023	49.71693
1045.187	4.60711
1045.351	-21.33698
1045.514	-29.25808
1045.678	-3.28933
1045.841	-32.62653
