Data from mildly cloudy_Subt2__11__14-22-55-646.txt Node

Date: Mon Oct 13 14:22:55 EDT 2025
User: brett
Spectrometer: USB4F03499
Trigger mode: 4
Integration Time (sec): 4.400000E-4
Scans to average: 1
Electric dark correction enabled: true
Nonlinearity correction enabled: true
Boxcar width: 0
XAxis mode: Wavelengths
Number of Pixels in Spectrum: 3648
>>>>>Begin Spectral Data<<<<<
345.386	26.72885
345.605	26.72885
345.824	26.72885
346.044	65.15351
346.263	65.0675
346.482	-33.08062
346.701	14.28867
346.92	-19.56124
347.139	36.85544
347.358	-26.33244
347.577	-27.45088
347.796	19.93858
348.015	17.69443
348.234	5.26384
348.453	4.13532
348.672	1.88092
348.891	6.39862
349.11	42.47608
349.329	-0.37607
349.548	33.50649
349.767	8.65158
349.986	-27.47323
350.205	-21.79725
350.424	22.20698
350.643	36.88977
350.862	30.11409
351.08	-26.34368
351.299	-66.97271
351.518	-3.76119
351.737	33.48827
351.956	16.5435
352.174	-16.1722
352.393	28.97524
352.612	-4.88908
352.831	15.41821
353.049	45.86887
353.268	32.35129
353.487	25.57316
353.705	-0.37607
353.924	-36.4702
354.143	-1.505
354.361	34.6097
354.58	15.41702
354.798	35.77511
355.017	-45.49553
355.236	47.04506
355.454	3.00965
355.673	44.75911
355.891	16.54094
356.11	-34.22489
356.328	7.52326
356.547	-3.76134
356.765	14.29586
356.984	32.33128
357.202	43.65866
357.42	16.55953
357.639	17.68412
357.857	18.79653
358.076	12.03442
358.294	6.39094
358.512	1.87947
358.731	-13.90434
358.949	-38.73807
359.167	-24.07818
359.386	-20.69258
359.604	5.26282
359.822	-4.89249
360.04	14.29143
360.259	17.66227
360.477	41.37957
360.695	-24.06978
360.913	-8.27015
361.131	-9.39881
361.35	-34.25412
361.568	21.06922
361.786	-18.43235
362.004	-15.03838
362.222	49.28027
362.44	-25.19367
362.658	26.72366
362.876	-27.44664
363.094	-6.01838
363.312	9.78214
363.53	18.81253
363.749	-55.66573
363.967	-44.39588
364.184	32.34128
364.402	-9.40791
364.62	-17.31627
364.838	-64.67512
365.056	4.1398
365.274	4.13563
365.492	-12.79153
365.71	-21.84292
365.928	-25.19465
366.146	51.54938
366.364	-46.61902
366.581	7.52181
366.799	32.32505
367.017	-7.14309
367.235	-29.70712
367.453	-13.91669
367.67	6.39564
367.888	-24.09221
368.106	22.19578
368.323	-16.1697
368.541	-11.66943
368.759	6.39391
368.977	19.93703
369.194	-24.04658
369.412	34.62179
369.629	36.89695
369.847	-20.68297
370.065	14.29752
370.282	19.93549
370.5	7.52326
370.717	-28.5884
370.935	-16.17909
371.152	23.33388
371.37	-42.15482
371.588	-34.22754
371.805	45.89727
372.022	-1.50407
372.24	14.30586
372.457	9.77193
372.675	-25.21516
372.892	34.62582
373.11	16.5576
373.327	61.64555
373.544	16.56081
373.762	-7.14227
373.979	-4.88456
374.196	17.6855
374.414	38.01535
374.631	7.5221
374.848	14.30586
375.066	-10.52727
375.283	-2.63329
375.5	-26.3304
375.717	-15.04536
375.935	24.45962
376.152	27.81779
376.369	26.71639
376.586	-21.82
376.803	-16.16158
377.02	35.73482
377.238	12.03256
377.455	39.13616
377.672	10.90177
377.889	58.33136
378.106	5.26628
378.323	59.44536
378.54	26.70397
378.757	-2.63167
378.974	-2.63411
379.191	4.13532
379.408	-21.81831
379.625	72.95037
379.842	-13.92641
380.059	27.835
380.276	28.98087
380.493	-10.5342
380.71	10.90894
380.927	24.46437
381.143	-3.76178
381.36	53.78825
381.577	-10.52849
381.794	10.90514
382.011	4.13803
382.228	13.15427
382.444	-52.23928
382.661	26.71328
382.878	30.0884
383.095	32.33753
383.311	39.13464
383.528	4.13755
383.745	-0.37627
383.962	-16.17909
384.178	-45.50432
384.395	31.21249
384.612	36.89407
384.828	-69.1927
385.045	-21.82508
385.261	-6.01675
385.478	49.29748
385.695	-3.76134
385.911	-3.75974
386.128	-39.88104
386.344	79.8087
386.561	26.73302
386.777	10.90135
386.994	-60.1722
387.21	-50.03264
387.427	9.77721
387.643	36.88116
387.86	13.15782
388.076	-4.88965
388.292	-4.89003
388.509	1.8818
388.725	25.59598
388.942	68.44325
389.158	1.88312
389.374	-20.69338
389.591	-1.50378
389.807	-1.50442
390.023	-69.21413
390.239	-21.79557
390.456	23.3167
390.672	-6.01768
390.888	16.55118
391.104	-17.3082
391.321	-28.59062
391.537	51.53739
391.753	12.03071
391.969	9.77835
392.185	5.26935
392.401	-35.3525
392.618	-11.65497
392.834	5.26771
393.05	4.13852
393.266	8.65293
393.482	-17.30418
393.698	30.10356
393.914	-16.18286
394.13	3.00872
394.346	-48.89367
394.562	-19.55594
394.778	19.93781
394.994	39.12098
395.21	-25.18298
395.426	-12.79202
395.642	-25.22104
395.858	-17.32032
396.073	39.14224
396.289	-34.2196
396.505	-1.50442
396.721	10.90767
396.937	-7.14364
397.153	32.34753
397.369	-10.5342
397.584	95.57166
397.8	5.26282
398.016	-2.6337
398.232	8.65125
398.447	-1.50285
398.663	10.90093
398.879	-15.04361
399.094	-20.69901
399.31	4.13404
399.526	-1.50384
399.741	14.29475
399.957	9.77759
400.173	50.44309
400.388	25.56723
400.604	-17.31291
400.82	42.46789
401.035	65.0524
401.251	-22.94818
401.466	42.4892
401.682	17.68756
401.897	-20.67578
402.113	-60.14895
402.328	40.27213
402.544	-13.90434
402.759	10.90979
402.974	3.01036
403.19	-35.35661
403.405	18.79943
403.621	21.07494
403.836	3.01047
404.051	3.00872
404.267	17.6855
404.482	-0.3762
404.697	39.11341
404.913	19.94244
405.128	19.93781
405.343	16.54414
405.559	-12.79849
405.774	0.75247
405.989	-39.84404
406.204	3.01094
406.42	-8.27944
406.635	52.66901
406.85	-19.54688
407.065	-9.40135
407.28	9.78594
407.495	6.3949
407.71	-3.76149
407.926	12.03815
408.141	17.69099
408.356	28.9584
408.571	23.33297
408.786	24.45392
409.001	-15.04303
409.216	16.53775
409.431	49.27645
409.646	-11.66309
409.861	35.74174
410.076	-21.80734
410.291	14.29033
410.506	43.62819
410.721	-17.30552
410.936	15.42299
411.15	-28.57183
411.365	12.03163
411.58	-6.02001
411.795	-17.29347
412.01	5.26894
412.225	-26.32633
412.439	-9.40317
412.654	-19.55746
412.869	-3.76047
413.084	-4.89097
413.299	24.45677
413.513	36.88403
413.728	1.88071
413.943	-19.55973
414.157	34.59497
414.372	-6.01489
414.587	8.64857
414.801	-11.65362
415.016	32.36007
415.231	38.01092
415.445	7.52999
415.66	1.88063
415.874	-38.72759
416.089	26.70087
416.304	74.15462
416.518	-35.37306
416.733	-10.52809
416.947	21.05699
417.162	16.5435
417.376	13.15935
417.59	10.90514
417.805	-16.18349
418.019	-10.53993
418.234	-37.64116
418.448	-24.07072
418.663	30.09772
418.877	-65.79937
419.091	9.77646
419.306	13.16291
419.52	-8.27335
419.734	34.59898
419.949	-47.74045
420.163	1.88122
420.377	15.41226
420.591	-47.78294
420.806	5.26445
421.02	48.16198
421.234	16.54478
421.448	-60.17918
421.663	66.23049
421.877	-74.82042
422.091	-1.50489
422.305	12.03349
422.519	7.52706
422.733	42.52047
422.947	8.64124
423.161	-1.50372
423.376	-3.76353
423.59	-19.54839
423.804	-12.7955
424.018	25.56723
424.232	-15.03664
424.446	-24.06792
424.66	-22.94462
424.874	-4.89135
425.088	33.48567
425.302	-28.55752
425.515	26.6988
425.729	-33.08828
425.943	22.20957
426.157	33.46623
426.371	3.00721
426.585	-20.67578
426.799	-15.03374
427.013	16.5467
427.226	4.13516
427.44	-49.99591
427.654	4.13691
427.868	-35.34294
428.081	9.77533
428.295	9.77759
428.509	9.78594
428.723	4.13675
428.936	-101.86771
429.15	46.9977
429.364	-17.30887
429.577	25.58505
429.791	-54.50682
430.005	25.55934
430.218	-19.57187
430.432	15.41583
430.645	-19.55821
430.859	-18.44237
431.073	-3.76003
431.286	24.45867
431.5	34.57762
431.713	-12.78065
431.927	5.26384
432.14	-18.44022
432.354	27.81886
432.567	18.81107
432.781	30.08607
432.994	19.94787
433.207	-35.34021
433.421	-73.72811
433.634	43.64849
433.848	-0.37591
434.061	52.65269
434.274	1.87998
434.488	9.77835
434.701	-11.65542
434.914	19.93781
435.127	1.88195
435.341	48.14705
435.554	7.52385
435.767	68.48303
435.98	0.75204
436.194	-2.63055
436.407	53.7945
436.62	27.835
436.833	23.32121
437.046	36.86257
437.259	-20.70384
437.473	-16.17909
437.686	32.35631
437.899	45.87064
438.112	-19.55216
438.325	15.41702
438.538	-11.66128
438.751	0.75233
438.964	-90.45179
439.177	-33.10108
439.39	-17.30283
439.603	23.35024
439.816	-7.14918
440.029	33.46881
440.242	-25.2044
440.455	6.39119
440.668	-1.50541
440.881	57.21015
441.094	26.71432
441.306	24.46722
441.519	39.1119
441.732	-12.79302
441.945	60.5471
442.158	9.78327
442.37	34.61373
442.583	4.13932
442.796	-17.31695
443.009	70.64238
443.222	53.77369
443.434	52.63642
443.647	-15.04769
443.86	3.00907
444.072	7.52385
444.285	-9.41083
444.498	33.46623
444.71	25.58802
444.923	15.43317
445.136	0.75224
445.348	13.16545
445.561	-15.04071
445.773	80.92391
445.986	60.53774
446.198	-26.32735
446.411	26.705
446.623	9.77306
446.836	-17.30552
447.048	60.51205
447.261	23.32573
447.473	-19.55216
447.686	-1.50308
447.898	-25.19562
448.11	37.99617
448.323	-111.98892
448.535	10.90177
448.748	-9.39555
448.96	13.16189
449.172	41.40206
449.385	-13.91077
449.597	33.48567
449.809	23.31941
450.021	18.80743
450.234	34.61507
450.446	-27.45301
450.658	-25.21124
450.87	33.44815
451.083	7.52268
451.295	-16.17032
451.507	-13.91507
451.719	32.35631
451.931	-36.53683
452.143	41.35877
452.356	-18.4395
452.568	45.88305
452.78	-29.70483
452.992	-73.7424
453.204	5.26526
453.416	27.87291
453.628	52.67718
453.84	-19.54839
454.052	10.91021
454.264	12.03582
454.476	-13.91292
454.688	26.69571
454.9	67.31897
455.112	-37.61487
455.324	14.30085
455.536	40.2643
455.747	24.43785
455.959	-13.90541
456.171	-17.28415
456.383	56.04728
456.595	16.5576
456.807	0.75206
457.018	27.82316
457.23	44.73317
457.442	3.00907
457.654	19.93472
457.865	18.80452
458.077	18.79725
458.289	-13.91238
458.501	41.34759
458.712	-7.1514
458.924	32.35129
459.136	-20.66305
459.347	48.16012
459.559	19.92932
459.77	13.16189
459.982	28.96962
460.194	23.30859
460.405	-19.54613
460.617	-16.17032
460.828	12.03256
461.04	-20.68617
461.251	-45.5008
461.463	-30.82274
461.674	22.19836
461.886	-48.89935
462.097	35.71548
462.309	-51.13251
462.52	-12.79302
462.731	28.95728
462.943	63.94039
463.154	5.26751
463.366	-28.56302
463.577	15.41643
463.788	-37.58872
464	-7.14447
464.211	22.18976
464.422	22.19406
464.634	38.00797
464.845	-7.14503
465.056	53.83421
465.267	-40.98357
465.478	18.81034
465.69	0.75227
465.901	48.11172
466.112	25.58604
466.323	78.58937
466.534	34.62179
466.745	-27.43289
466.957	23.33479
467.168	12.03349
467.379	26.70707
467.59	17.67659
467.801	5.26019
468.012	-10.522
468.223	1.88187
468.434	33.47011
468.645	38.0124
468.856	-11.65182
469.067	-4.89097
469.278	10.90388
469.489	23.32392
469.7	-25.19854
469.911	12.03536
470.122	48.14705
470.333	58.29294
470.543	103.41522
470.754	-11.65993
470.965	58.27717
471.176	76.37755
471.387	10.91487
471.598	-27.46151
471.808	31.21611
472.019	22.18376
472.23	-2.63207
472.441	4.13627
472.651	47.0268
472.862	40.27369
473.073	-17.29949
473.283	15.42
473.494	-42.14009
473.705	35.75562
473.915	32.33503
474.126	-22.94729
474.337	-3.76163
474.547	-6.01884
474.758	32.32629
474.968	-12.77917
475.179	-20.69499
475.389	-15.03258
475.6	-61.27557
475.81	34.57629
476.021	44.72972
476.231	44.74872
476.442	-6.01884
476.652	31.22457
476.863	-18.42736
477.073	0.75177
477.284	-18.41173
477.494	-6.01489
477.704	-12.78411
477.915	68.4221
478.125	40.25337
478.335	-2.6335
478.546	21.05455
478.756	-6.01954
478.966	3.00721
479.177	26.70914
479.387	-12.7846
479.597	-31.97697
479.807	24.42842
480.018	-10.54116
480.228	-6.02048
480.438	42.48755
480.648	85.37106
480.858	-63.51397
481.068	19.93009
481.279	5.26547
481.489	16.54414
481.699	-10.53298
481.909	25.59101
482.119	25.58405
482.329	15.41048
482.539	-1.5043
482.749	28.9584
482.959	18.78784
483.169	0.75125
483.379	21.05292
483.589	25.56723
483.799	3.0093
484.009	60.56586
484.219	3.00872
484.429	6.39564
484.639	43.67054
484.849	5.26751
485.059	28.95504
485.268	-36.4702
485.478	92.20135
485.688	12.0321
485.898	48.13029
486.108	-7.15029
486.317	14.29586
486.527	-10.52362
486.737	-2.63217
486.947	-38.76211
487.156	26.70087
487.366	-43.23287
487.576	-35.35387
487.785	-15.03085
487.995	-51.14635
488.205	34.60434
488.414	-12.80997
488.624	23.32845
488.834	34.61507
489.043	47.00133
489.253	-21.79641
489.462	-6.01908
489.672	16.55824
489.882	39.10736
490.091	17.68001
490.301	70.75171
490.51	22.21649
490.72	39.10283
490.929	-21.79977
491.138	16.54926
491.348	16.55374
491.557	13.17414
491.767	0.75233
491.976	-0.37602
492.185	-8.27495
492.395	9.77156
492.604	-8.26951
492.813	7.52122
493.023	-9.40754
493.232	-0.37611
493.441	3.00686
493.651	19.93317
493.86	13.17414
494.069	15.41941
494.278	12.04236
494.488	49.2593
494.697	-13.91884
494.906	-27.45301
495.115	8.65628
495.324	14.29254
495.533	-30.86814
495.743	-42.11888
495.952	39.1119
496.161	34.60166
496.37	25.58207
496.579	12.04189
496.788	15.42777
496.997	44.77472
497.206	15.42598
497.415	32.35129
497.624	-9.409
497.833	6.39787
498.042	23.32392
498.251	-9.39699
498.46	15.42538
498.669	12.03256
498.878	-15.0349
499.087	14.29752
499.296	0.75236
499.504	3.00617
499.713	-29.71747
499.922	44.75911
500.131	-34.2196
500.34	0.75201
500.549	16.54158
500.757	22.20353
500.966	48.17882
501.175	41.40689
501.384	-25.19562
501.592	-49.97472
501.801	5.26853
502.01	45.88305
502.218	-1.50565
502.427	44.80257
502.636	53.69922
502.844	30.08258
503.053	62.78896
503.262	-20.69258
503.47	15.42
503.679	-0.37598
503.887	50.41567
504.096	-11.66264
504.304	59.43384
504.513	10.91021
504.721	15.43437
504.93	8.64557
505.138	7.52268
505.347	18.80889
505.555	36.85687
505.764	37.98734
505.972	-7.14392
506.18	-29.70597
506.389	26.71846
506.597	-18.40819
506.806	59.44997
507.014	24.44162
507.222	40.24402
507.431	6.39514
507.639	18.81326
507.847	44.76604
508.055	9.77495
508.264	37.98587
508.472	-19.56807
508.68	39.11039
508.888	13.15935
509.096	16.55246
509.305	0.75215
509.513	-11.65722
509.721	0.75192
509.929	23.3158
510.137	27.82746
510.345	55.99535
510.553	-21.82508
510.762	54.92626
510.97	-2.63248
511.178	-2.62994
511.386	33.43657
511.594	-27.48071
511.802	36.83978
512.01	10.90936
512.218	65.12306
512.426	1.88005
512.634	42.51717
512.842	60.54476
513.049	-27.44135
513.257	26.71535
513.465	-1.50378
513.673	18.79073
513.881	23.31941
514.089	69.6457
514.297	42.50728
514.504	73.00125
514.712	26.69159
514.92	37.9668
515.128	42.51717
515.336	16.54606
515.543	51.47377
515.751	10.89757
515.959	-1.50355
516.166	28.96401
516.374	18.80161
516.582	17.67317
516.789	-20.68137
516.997	-37.59887
517.205	-22.93752
517.412	10.91317
517.62	-10.53952
517.827	60.55882
518.035	-20.68457
518.243	28.94945
518.45	14.28922
518.658	-6.01861
518.865	-0.37578
519.073	14.28536
519.28	50.3437
519.488	35.74174
519.695	15.42418
519.902	9.77608
520.11	38.01387
520.317	34.60702
520.525	5.26833
520.732	45.86355
520.939	-22.94818
521.147	1.88063
521.354	-33.11906
521.561	-25.2181
521.769	16.5576
521.976	-8.27303
522.183	-4.88984
522.391	62.86201
522.598	52.66901
522.805	44.76257
523.012	23.32031
523.219	30.07445
523.427	-22.93841
523.634	-7.14392
523.841	47.01951
524.048	15.42
524.255	35.72929
524.462	9.76892
524.669	21.04968
524.877	10.91869
525.084	22.1889
525.291	-6.01489
525.498	31.2282
525.705	31.21249
525.912	10.90304
526.119	44.74008
526.326	-10.53175
526.533	43.61639
526.74	9.77948
526.947	-28.57403
527.153	40.23157
527.36	13.16596
527.567	-9.4028
527.774	40.25806
527.981	17.68893
528.188	0.75221
528.395	-7.14696
528.602	23.305
528.808	-16.17909
529.015	-64.63025
529.222	-4.89022
529.429	-61.2732
529.635	6.39514
529.842	18.7958
530.049	-2.6335
530.256	37.9947
530.462	16.56081
530.669	63.92803
530.876	26.7081
531.082	44.80606
531.289	-56.80179
531.495	-1.50471
531.702	-2.63442
531.909	17.67933
532.115	18.80452
532.322	65.01476
532.528	-10.52768
532.735	12.03489
532.941	43.63664
533.148	-17.30619
533.354	76.36274
533.561	35.76397
533.767	-11.65767
533.974	0.75206
534.18	7.52443
534.387	45.88305
534.593	43.61133
534.799	7.52122
535.006	48.12286
535.212	12.02468
535.418	13.1624
535.625	79.75293
535.831	62.80109
536.037	0.75195
536.244	-20.68057
536.45	1.88027
536.656	32.35129
536.862	28.96625
537.068	31.23063
537.275	23.3068
537.481	18.79145
537.687	10.90472
537.893	84.33276
538.099	28.93717
538.305	42.46135
538.512	-17.28947
538.718	19.92778
538.924	-19.562
539.13	-26.30196
539.336	56.03643
539.542	-24.08285
539.748	-2.63268
539.954	7.52122
540.16	23.3122
540.366	-4.88946
540.572	42.47935
540.778	48.10801
540.984	0.75166
541.19	66.25108
541.396	30.07445
541.602	-11.65767
541.807	83.14675
542.013	86.501
542.219	59.43154
542.425	14.28812
542.631	54.8521
542.837	-28.59284
543.042	6.39168
543.248	-10.522
543.454	-7.14392
543.66	28.96513
543.865	1.8802
544.071	-6.02235
544.277	15.4212
544.483	-13.92208
544.688	16.5435
544.894	-18.44739
545.1	50.38446
545.305	31.22336
545.511	16.54798
545.716	10.9119
545.922	-3.75844
546.128	27.83069
546.333	50.42545
546.539	70.66688
546.744	27.83069
546.95	25.55737
547.155	35.74452
547.361	-3.76178
547.566	28.93495
547.772	-12.796
547.977	5.26323
548.182	7.52181
548.388	-12.78559
548.593	61.71955
548.799	-31.98317
549.004	51.5674
549.209	89.95033
549.415	19.94632
549.62	54.93478
549.825	15.41881
550.031	31.19803
550.236	-25.19075
550.441	13.15731
550.646	30.11175
550.852	3.00965
551.057	-3.76221
551.262	13.16954
551.467	6.387
551.672	25.57613
551.878	56.05814
552.083	15.42777
552.288	0.75253
552.493	-10.53338
552.698	19.90631
552.903	-34.21299
553.108	31.21611
553.313	-40.97092
553.518	45.88838
553.723	51.51147
553.928	-3.76149
554.133	25.5692
554.338	-2.63248
554.543	36.83978
554.748	3.0071
554.953	28.95057
555.158	22.1975
555.363	16.55118
555.568	0.75218
555.773	27.82424
555.978	-9.39808
556.182	-7.14475
556.387	14.29586
556.592	-13.90648
556.797	3.01141
557.002	6.38578
557.206	-4.88832
557.411	51.52342
557.616	6.38823
557.821	22.19062
558.025	-10.52768
558.23	41.35238
558.435	30.08723
558.64	-7.14447
558.844	24.44729
559.049	28.96737
559.253	56.04511
559.458	-7.14585
559.663	19.94167
559.867	43.59788
560.072	59.40856
560.276	12.03163
560.481	41.35078
560.685	-47.75151
560.89	-30.84538
561.094	4.13436
561.299	25.57514
561.503	-3.75916
561.708	-9.39772
561.912	53.80911
562.117	-7.14144
562.321	23.30859
562.525	31.21611
562.73	44.75738
562.934	31.24398
563.139	-15.05704
563.343	-9.39917
563.547	59.39938
563.752	-8.27527
563.956	25.57217
564.16	30.08723
564.364	43.65696
564.569	-1.50442
564.773	-20.68057
564.977	33.47918
565.181	50.35532
565.385	-6.01954
565.59	41.36356
565.794	4.13563
565.998	10.91487
566.202	12.03909
566.406	-1.50395
566.61	39.10132
566.814	-17.30686
567.018	8.6546
567.222	27.82639
567.426	3.00768
567.63	31.21973
567.834	72.98426
568.038	84.22164
568.242	-9.40244
568.446	8.64958
568.65	8.64857
568.854	3.00617
569.058	-15.05236
569.262	22.18719
569.466	72.99275
569.67	-8.27047
569.874	-10.53053
570.078	34.61238
570.281	-10.53461
570.485	24.46247
570.689	0.75195
570.893	14.29475
571.097	-18.43735
571.3	37.97706
571.504	9.78138
571.708	-10.53911
571.912	75.20658
572.115	35.7279
572.319	7.52764
572.523	3.01106
572.726	-31.96831
572.93	33.46493
573.133	12.02746
573.337	-38.73358
573.541	59.37192
573.744	49.25549
573.948	28.96289
574.151	-15.04303
574.355	63.92555
574.558	-7.15001
574.762	17.66976
574.965	24.44068
575.169	-51.12659
575.372	9.77382
575.576	-8.28041
575.779	8.6479
575.983	0.75212
576.186	30.07677
576.389	22.19406
576.593	40.23002
576.796	-8.27783
577	-7.14089
577.203	-0.37608
577.406	4.139
577.609	-10.53665
577.813	-0.37605
578.016	-19.55216
578.219	37.99323
578.423	0.7525
578.626	42.4892
578.829	30.08491
579.032	-9.39844
579.235	5.26751
579.438	-15.02622
579.642	17.68138
579.845	26.71121
580.048	50.39615
580.251	4.13309
580.454	-16.15661
580.657	12.03722
580.86	22.1975
581.063	-63.46518
581.266	-11.66354
581.469	4.13948
581.672	-17.30016
581.875	41.39241
582.078	12.03722
582.281	54.86687
582.484	-9.39338
582.687	-19.55897
582.89	53.76538
583.093	-34.23152
583.296	39.1392
583.499	-17.3082
583.702	27.83716
583.904	22.17349
584.107	60.55413
584.31	-11.65407
584.513	-35.33748
584.716	41.35238
584.918	8.65393
585.121	1.87991
585.324	71.80701
585.527	28.9584
585.729	-6.01768
585.932	28.94945
586.135	-54.51945
586.337	-11.66173
586.54	-13.91938
586.743	-19.55746
586.945	-19.54086
587.148	23.3149
587.35	61.71716
587.553	-15.04478
587.755	41.39402
587.958	-18.43664
588.161	1.87962
588.363	19.92855
588.566	22.21562
588.768	36.88116
588.971	39.14833
589.173	12.03815
589.375	-0.37617
589.578	8.64824
589.78	15.41643
589.983	-63.57781
590.185	6.39168
590.387	26.72158
590.59	9.78176
590.792	-38.75759
590.994	52.68536
591.197	-45.53077
591.399	-6.01908
591.601	28.95169
591.803	80.86116
592.006	49.23649
592.208	0.75241
592.41	104.56159
592.612	31.21611
592.815	32.35756
593.017	67.30856
593.219	41.38599
593.421	85.44394
593.623	19.92701
593.825	-34.19585
594.027	-28.57624
594.229	111.43125
594.432	48.15451
594.634	19.93472
594.836	43.65696
595.038	17.66771
595.24	-13.91723
595.442	28.94833
595.644	0.75183
595.846	-2.63258
596.048	-43.23454
596.249	25.59101
596.451	45.88838
596.653	31.22457
596.855	-17.29748
597.057	6.3949
597.259	7.52181
597.461	14.27821
597.663	7.52181
597.864	13.15782
598.066	39.10736
598.268	28.94945
598.47	0.75233
598.671	16.54222
598.873	-0.37637
599.075	0.75209
599.277	15.41762
599.478	36.87973
599.68	45.82298
599.882	18.8279
600.083	7.52122
600.285	-38.71563
600.487	44.75911
600.688	15.41523
600.89	27.82209
601.091	52.6222
601.293	4.13723
601.494	50.40395
601.696	19.94709
601.898	8.64891
602.099	-7.13897
602.301	-15.04071
602.502	23.3131
602.703	-9.40499
602.905	6.39341
603.106	9.77043
603.308	26.7019
603.509	33.47011
603.711	-12.78164
603.912	45.87064
604.113	14.28371
604.315	4.13229
604.516	65.01226
604.717	30.0617
604.919	31.19082
605.12	17.66363
605.321	62.78896
605.522	53.77161
605.724	79.67286
605.925	81.88682
606.126	69.49507
606.327	87.58021
606.528	81.86797
606.729	87.53303
606.931	138.18914
607.132	79.70667
607.333	94.25909
607.534	129.20146
607.735	93.15213
607.936	90.90193
608.137	90.9159
608.338	102.12775
608.539	112.19045
608.74	76.15765
608.941	134.85862
609.142	87.44588
609.343	155.05486
609.544	208.9912
609.745	185.22203
609.946	144.85979
610.147	190.90798
610.348	209.00714
610.549	179.56028
610.75	219.13469
610.95	230.1207
611.151	253.40347
611.352	192.00765
611.553	250.35068
611.754	178.47967
611.954	329.65503
612.155	221.04182
612.356	300.46689
612.557	315.14956
612.757	299.34989
612.958	284.55877
613.159	329.27356
613.359	356.47826
613.56	359.55652
613.761	375.0051
613.961	480.51027
614.162	388.48165
614.362	426.57139
614.563	434.29585
614.764	440.7741
614.964	466.69368
615.165	476.39802
615.365	545.69994
615.566	531.91826
615.766	543.04345
615.967	600.45636
616.167	563.29779
616.368	599.43717
616.568	640.98907
616.768	637.03143
616.969	636.15661
617.169	691.40943
617.37	661.38185
617.57	750.79276
617.77	729.25832
617.971	774.19226
618.171	809.78384
618.371	804.03699
618.571	808.37498
618.772	944.56341
618.972	824.53985
619.172	914.61163
619.372	838.61722
619.573	911.1944
619.773	889.6089
619.973	941.67784
620.173	1033.52866
620.373	994.86071
620.573	1038.63248
620.774	1080.40212
620.974	1029.98067
621.174	1124.15781
621.374	1062.03894
621.574	1197.32608
621.774	1117.14583
621.974	1182.14462
622.174	1180.89316
622.374	1263.67839
622.574	1183.82909
622.774	1291.59985
622.974	1186.68767
623.174	1254.91889
623.374	1345.60846
623.574	1371.33316
623.774	1329.18337
623.973	1447.2146
624.173	1368.54502
624.373	1451.46669
624.573	1480.82608
624.773	1434.00481
624.973	1473.86336
625.172	1589.96673
625.372	1493.38538
625.572	1594.69898
625.772	1517.86231
625.971	1550.69447
626.171	1607.19341
626.371	1623.1537
626.57	1550.74557
626.77	1600.9997
626.97	1621.81233
627.169	1774.53175
627.369	1667.99072
627.569	1686.85694
627.768	1688.98248
627.968	1710.22973
628.167	1763.73821
628.367	1847.57368
628.566	1772.54273
628.766	1811.02704
628.965	1763.28374
629.165	1852.32817
629.364	1829.1618
629.564	1851.3214
629.763	1820.89226
629.963	1962.10308
630.162	1818.95146
630.362	1976.79257
630.561	1967.86915
630.76	1952.96697
630.96	1921.8033
631.159	2027.36801
631.358	1958.57859
631.558	2052.98486
631.757	1937.21932
631.956	1957.60317
632.155	1984.57244
632.355	2084.40392
632.554	1895.85323
632.753	1960.57744
632.952	2024.72444
633.152	2032.29354
633.351	2074.02038
633.55	2093.70023
633.749	2112.66685
633.948	2095.5514
634.147	2030.2622
634.346	2118.70682
634.545	2087.90728
634.744	2135.25452
634.944	2082.84868
635.143	2090.68164
635.342	2115.21804
635.541	2115.15284
635.74	2125.18809
635.939	2160.55114
636.138	2116.46037
636.336	2165.85945
636.535	2098.64651
636.734	2216.96775
636.933	2157.69808
637.132	2292.55929
637.331	2201.52023
637.53	2328.34742
637.729	2197.78251
637.928	2309.5745
638.126	2221.72675
638.325	2267.26906
638.524	2340.68716
638.723	2214.10595
638.921	2296.23628
639.12	2334.62623
639.319	2212.23062
639.518	2278.28496
639.716	2271.54999
639.915	2274.17512
640.114	2347.19091
640.312	2335.89321
640.511	2314.1007
640.71	2373.60277
640.908	2289.10206
641.107	2329.06423
641.305	2328.98222
641.504	2436.39429
641.702	2343.37523
641.901	2387.45127
642.099	2360.70535
642.298	2443.36595
642.496	2323.56958
642.695	2368.46078
642.893	2335.89321
643.092	2421.60808
643.29	2371.63177
643.489	2423.43603
643.687	2361.40099
643.885	2382.68418
644.084	2323.29109
644.282	2395.00189
644.48	2421.75899
644.679	2375.14536
644.877	2440.79445
645.075	2520.64918
645.274	2447.85108
645.472	2356.0473
645.67	2377.94764
645.868	2455.41475
646.067	2540.15808
646.265	2442.97675
646.463	2369.37512
646.661	2504.48941
646.859	2504.08945
647.057	2565.8618
647.256	2431.04095
647.454	2513.71673
647.652	2577.15593
647.85	2544.81172
648.048	2517.78679
648.246	2398.84166
648.444	2451.10238
648.642	2461.6822
648.84	2414.58567
649.038	2547.53251
649.236	2414.33336
649.434	2434.02421
649.632	2482.00315
649.83	2487.12942
650.028	2398.13678
650.226	2489.1987
650.423	2411.85154
650.621	2507.87263
650.819	2433.6976
651.017	2435.15265
651.215	2497.4536
651.413	2416.45419
651.61	2495.33404
651.808	2447.74499
652.006	2394.84167
652.204	2525.01564
652.401	2440.47151
652.599	2481.39397
652.797	2422.26616
652.995	2456.36316
653.192	2429.80164
653.39	2446.47047
653.588	2455.7471
653.785	2454.1496
653.983	2403.32996
654.18	2387.87892
654.378	2388.70127
654.576	2467.88127
654.773	2407.22153
654.971	2456.14399
655.168	2419.86476
655.366	2523.2839
655.563	2431.73179
655.761	2501.36421
655.958	2470.61481
656.156	2522.75599
656.353	2359.36422
656.55	2480.07897
656.748	2428.23751
656.945	2493.38391
657.143	2495.79157
657.34	2407.62701
657.537	2462.94173
657.735	2474.5856
657.932	2361.27458
658.129	2430.13083
658.326	2440.63934
658.524	2426.45758
658.721	2334.20043
658.918	2341.67405
659.115	2389.64557
659.313	2389.90776
659.51	2293.99227
659.707	2451.35029
659.904	2322.63211
660.101	2390.41346
660.298	2323.6227
660.496	2390.8926
660.693	2381.82747
660.89	2401.02715
661.087	2362.91822
661.284	2380.27309
661.481	2338.07833
661.678	2317.9924
661.875	2348.43952
662.072	2455.32476
662.269	2324.89666
662.466	2433.55164
662.663	2410.05974
662.86	2479.34261
663.057	2383.95537
663.254	2547.74555
663.45	2472.58074
663.647	2541.43569
663.844	2534.65183
664.041	2498.42411
664.238	2411.71064
664.435	2373.58142
664.631	2467.00827
664.828	2552.86105
665.025	2546.10902
665.222	2627.35349
665.419	2613.50387
665.615	2719.98929
665.812	2596.37435
666.009	2761.36856
666.205	2744.82119
666.402	2825.24779
666.599	2719.47078
666.795	2833.20051
666.992	2841.3577
667.188	2916.52062
667.385	2861.09151
667.582	2999.60624
667.778	2995.08755
667.975	3080.33939
668.171	3057.72661
668.368	3164.46865
668.564	3152.75599
668.761	3208.43377
668.957	3166.46279
669.154	3376.17545
669.35	3398.19453
669.547	3415.21805
669.743	3431.91496
669.939	3528.03487
670.136	3517.48826
670.332	3533.39064
670.528	3597.3904
670.725	3695.76893
670.921	3701.92983
671.117	3866.7546
671.314	3742.11549
671.51	4025.31968
671.706	3977.22815
671.902	4075.73898
672.099	4039.10291
672.295	4119.43854
672.491	4278.14257
672.687	4283.44199
672.883	4292.65086
673.08	4431.66955
673.276	4479.82822
673.472	4677.73345
673.668	4570.5686
673.864	4673.81868
674.06	4745.7456
674.256	4900.07495
674.452	4845.42981
674.648	4925.24107
674.844	4951.41479
675.04	5153.91619
675.236	5008.26682
675.432	5161.94385
675.628	5100.28797
675.824	5248.36205
676.02	5314.37686
676.216	5434.58384
676.412	5549.1963
676.608	5587.24153
676.804	5502.33804
676.999	5686.62603
677.195	5662.40875
677.391	5932.45649
677.587	5757.79612
677.783	5929.15601
677.978	5893.38216
678.174	6077.17329
678.37	5961.90007
678.566	6188.98306
678.761	6204.29624
678.957	6221.39042
679.153	6242.95978
679.348	6282.73338
679.544	6482.21101
679.74	6441.36216
679.935	6466.42765
680.131	6535.71977
680.327	6727.60136
680.522	6712.87244
680.718	6625.30241
680.913	6711.89207
681.109	6898.62567
681.304	6827.07632
681.5	6987.08316
681.695	7065.19207
681.891	7062.32354
682.086	7165.4554
682.282	7141.8813
682.477	7247.01538
682.672	7379.90957
682.868	7498.29657
683.063	7652.25459
683.259	7767.15559
683.454	7605.75457
683.649	7952.12019
683.845	7720.74403
684.04	8026.85372
684.235	7988.49287
684.43	8095.1835
684.626	8071.12785
684.821	8254.23172
685.016	8245.08994
685.211	8290.91558
685.407	8340.12887
685.602	8447.36162
685.797	8418.00799
685.992	8473.31436
686.187	8742.89532
686.382	8742.93968
686.577	8586.84352
686.773	8912.14108
686.968	8872.34772
687.163	9027.17182
687.358	8869.28139
687.553	8932.08505
687.748	9196.1798
687.943	9146.72363
688.138	9147.90289
688.333	9149.70185
688.528	9133.05259
688.723	9185.0172
688.918	9204.25694
689.112	9242.72865
689.307	9190.97288
689.502	9170.73611
689.697	9276.32971
689.892	9499.80148
690.087	9367.30769
690.282	9623.44155
690.476	9546.98589
690.671	9589.2168
690.866	9520.84993
691.061	9700.74152
691.255	9690.23886
691.45	9731.80858
691.645	9645.01486
691.84	9877.79572
692.034	9996.4623
692.229	9997.33742
692.424	10116.2185
692.618	10185.32222
692.813	10076.9563
693.007	10217.55116
693.202	10224.49461
693.397	10500.48838
693.591	10460.54777
693.786	10552.85842
693.98	10492.31258
694.175	10872.95856
694.369	10835.56119
694.564	10988.50388
694.758	10891.42389
694.953	11244.79911
695.147	11253.86024
695.342	11356.68629
695.536	11307.89886
695.73	11554.3194
695.925	11692.015
696.119	11682.98084
696.313	11618.06819
696.508	11826.94215
696.702	11969.51223
696.896	12013.54246
697.091	12231.50153
697.285	12438.61904
697.479	12530.14325
697.673	12592.54373
697.868	12617.1485
698.062	12933.18434
698.256	12743.32248
698.45	12996.20392
698.644	13010.48815
698.839	13175.45445
699.033	13143.39399
699.227	13546.43601
699.421	13479.91145
699.615	13706.35542
699.809	13645.82439
700.003	13844.59321
700.197	14000.26102
700.391	14119.59509
700.585	14034.59913
700.779	14186.48704
700.973	14204.72208
701.167	14198.37399
701.361	14310.97158
701.555	14438.81559
701.749	14190.36589
701.943	14468.81185
702.137	14407.77653
702.331	14569.8301
702.525	14643.49008
702.718	14750.65412
702.912	14670.75277
703.106	14732.09626
703.3	14763.58692
703.494	14860.0412
703.687	14704.19373
703.881	14800.15917
704.075	14857.1387
704.269	14938.37584
704.462	15227.17817
704.656	14963.89637
704.85	14855.95201
705.043	14780.47174
705.237	14747.04931
705.431	14793.61943
705.624	14812.55872
705.818	14843.40231
706.012	14974.17113
706.205	14917.70118
706.399	14706.56802
706.592	14950.42311
706.786	14711.33755
706.979	14792.75911
707.173	14661.52872
707.366	14872.12361
707.56	14687.36137
707.753	14665.45509
707.947	14566.60039
708.14	14693.76074
708.333	14557.64884
708.527	14521.67533
708.72	14560.87835
708.914	14501.72152
709.107	14496.87803
709.3	14342.74174
709.494	14276.71216
709.687	14304.38288
709.88	14484.16128
710.073	14359.69732
710.267	14365.88243
710.46	14267.59399
710.653	14344.92024
710.846	14193.29618
711.04	14208.8831
711.233	14159.30985
711.426	14069.43604
711.619	14298.18085
711.812	14287.80197
712.005	14227.38127
712.198	14110.59865
712.391	14269.42431
712.585	14081.44648
712.778	13995.57995
712.971	14002.48505
713.164	13867.34307
713.357	13943.30336
713.55	13928.66514
713.743	13761.84298
713.936	13970.35855
714.129	13812.0209
714.322	13943.92792
714.514	13920.52877
714.707	13740.02284
714.9	13640.032
715.093	13932.55913
715.286	13760.26036
715.479	13716.80924
715.672	13673.99743
715.864	13769.65777
716.057	13707.00527
716.25	13704.7996
716.443	13633.63275
716.636	13531.96651
716.828	13781.26314
717.021	13537.71763
717.214	13634.47628
717.406	13591.12783
717.599	13526.69375
717.792	13581.95086
717.984	13411.40765
718.177	13279.941
718.37	13254.29884
718.562	13398.09451
718.755	13420.80386
718.947	13162.04521
719.14	13245.76851
719.333	13159.87227
719.525	12915.91859
719.718	12930.6879
719.91	12759.25596
720.103	12623.89104
720.295	12553.2503
720.487	12723.93239
720.68	12432.35295
720.872	12404.76788
721.065	12216.83769
721.257	12260.40188
721.449	12027.22124
721.642	12051.13413
721.834	11980.18491
722.026	11967.35931
722.219	11814.66081
722.411	11678.29602
722.603	11596.8718
722.796	11702.68059
722.988	11584.43116
723.18	11577.84698
723.372	11617.35219
723.565	11479.63158
723.757	11309.75099
723.949	11381.24798
724.141	11304.90726
724.333	11318.39371
724.525	11222.97502
724.717	11208.68026
724.91	11078.49936
725.102	10912.3496
725.294	10867.87876
725.486	11005.30622
725.678	10911.32532
725.87	10843.45512
726.062	10689.03549
726.254	10804.88038
726.446	10594.93038
726.638	10662.18879
726.83	10521.41321
727.022	10419.48714
727.213	10532.60495
727.405	10585.32737
727.597	10418.59197
727.789	10312.60806
727.981	10219.59914
728.173	10361.2133
728.365	10242.07188
728.556	10351.25761
728.748	10294.66305
728.94	10292.37674
729.132	10320.61346
729.324	10312.03613
729.515	10158.14575
729.707	10066.02878
729.899	10134.44511
730.09	10187.39073
730.282	10116.45623
730.474	10173.95417
730.665	10048.8769
730.857	10251.5763
731.049	10025.09372
731.24	10138.734
731.432	9983.79253
731.623	9978.59277
731.815	9864.73484
732.006	10057.63261
732.198	9938.99181
732.389	9956.57343
732.581	9905.43279
732.772	9822.55295
732.964	9857.20812
733.155	9832.16547
733.347	9861.89312
733.538	9866.781
733.729	9862.80355
733.921	9859.05547
734.112	9907.72377
734.304	9968.96556
734.495	9790.26221
734.686	9796.80519
734.877	9905.26401
735.069	9769.87582
735.26	9795.63233
735.451	9825.72588
735.643	9790.74588
735.834	9933.03772
736.025	9880.1324
736.216	9781.40962
736.407	9697.6693
736.599	9848.22588
736.79	9825.80264
736.981	10029.60806
737.172	9940.15974
737.363	10114.4905
737.554	9878.4109
737.745	9974.875
737.936	10041.97696
738.127	10063.92633
738.318	9983.26642
738.509	10052.58427
738.7	10141.1581
738.891	10129.83059
739.082	10102.41155
739.273	10108.31337
739.464	10095.39102
739.655	10307.96673
739.846	10067.76461
740.037	10361.21149
740.228	10155.88927
740.419	10262.28991
740.609	10119.505
740.8	10260.09837
740.991	10366.40592
741.182	10288.84993
741.373	10403.03666
741.563	10262.75987
741.754	10280.99483
741.945	10364.55919
742.136	10386.6933
742.326	10356.61483
742.517	10378.62218
742.708	10275.40947
742.898	10374.51211
743.089	10389.42246
743.28	10474.70771
743.47	10300.93516
743.661	10319.89919
743.851	10501.7262
744.042	10256.09204
744.233	10338.77546
744.423	10300.95453
744.614	10493.46562
744.804	10333.34785
744.995	10276.50101
745.185	10082.9071
745.376	10490.5719
745.566	10439.92587
745.756	10436.917
745.947	10429.2279
746.137	10419.55629
746.328	10314.25656
746.518	10426.14573
746.708	10282.28519
746.899	10362.71251
747.089	10294.57668
747.279	10282.01264
747.47	10261.66244
747.66	10151.20342
747.85	10261.0506
748.04	10250.89054
748.231	10392.84026
748.421	10324.7957
748.611	10255.1316
748.801	10378.51401
748.991	10300.23609
749.182	10213.27408
749.372	10349.78686
749.562	10387.09447
749.752	10369.00932
749.942	10260.50621
750.132	10252.8134
750.322	10316.61764
750.512	10042.14402
750.702	10291.93191
750.892	10215.98151
751.082	10192.89618
751.272	10080.1704
751.462	10101.27215
751.652	9994.70304
751.842	10092.20898
752.032	9952.94077
752.222	10065.29325
752.412	10143.67906
752.602	10130.58881
752.792	9896.84772
752.981	9831.00862
753.171	9793.26183
753.361	9875.12695
753.551	9996.48931
753.741	9891.98986
753.93	9756.53353
754.12	9875.14351
754.31	9854.43287
754.5	9969.12988
754.689	9776.54713
754.879	9830.73658
755.069	9760.98565
755.258	9874.03338
755.448	9804.25271
755.638	9615.2796
755.827	9491.2083
756.017	9678.33375
756.206	9557.56287
756.396	9697.14646
756.586	9561.94067
756.775	9605.36352
756.965	9665.57496
757.154	9602.83541
757.344	9509.27944
757.533	9614.59374
757.723	9458.7063
757.912	9465.2432
758.101	9387.25985
758.291	9573.40997
758.48	9394.40546
758.67	9403.03496
758.859	9251.96073
759.048	9389.00511
759.238	9166.57814
759.427	9356.83915
759.616	9328.19334
759.806	9221.5397
759.995	9287.36375
760.184	9230.46337
760.373	9057.14706
760.563	9197.85171
760.752	9042.16122
760.941	8988.04787
761.13	8790.57997
761.319	8777.61971
761.509	8626.50404
761.698	8550.97972
761.887	8434.84473
762.076	8329.36095
762.265	8077.79406
762.454	8062.10332
762.643	7842.78812
762.832	7748.6188
763.021	7502.81343
763.21	7547.75896
763.399	7291.59442
763.588	7390.98386
763.777	7088.57332
763.966	7014.79852
764.155	6918.45693
764.344	6779.18573
764.533	6709.14449
764.722	6677.4347
764.911	6328.65008
765.1	6318.49333
765.288	6240.08203
765.477	6081.12551
765.666	5914.09508
765.855	5925.46606
766.044	5808.31803
766.232	5761.49722
766.421	5508.15223
766.61	5514.03922
766.799	5443.90449
766.987	5387.01589
767.176	5282.98555
767.365	5324.09996
767.553	5260.35707
767.742	5160.31704
767.931	5157.00823
768.119	5057.15283
768.308	5080.17566
768.497	4873.88529
768.685	4914.7461
768.874	5004.53883
769.062	4885.05686
769.251	5031.0472
769.439	4890.25075
769.628	4967.00131
769.816	4977.25803
770.005	5048.80594
770.193	5149.13282
770.382	5182.20989
770.57	5234.18657
770.758	5435.29207
770.947	5375.76918
771.135	5636.39411
771.323	5548.06099
771.512	5638.34099
771.7	5736.09761
771.888	5731.36003
772.077	5908.37573
772.265	5945.29333
772.453	6024.16986
772.642	6007.58908
772.83	6121.90752
773.018	6277.95943
773.206	6165.88075
773.394	6300.42489
773.583	6297.66381
773.771	6394.10674
773.959	6554.27758
774.147	6646.24042
774.335	6685.60579
774.523	6810.5645
774.711	6718.13294
774.899	6827.88317
775.087	6962.55014
775.275	6861.40701
775.463	6899.10061
775.651	7161.10578
775.839	7087.01524
776.027	7137.88638
776.215	7129.71128
776.403	7253.41415
776.591	7183.43515
776.779	7341.01959
776.967	7226.92564
777.155	7482.67913
777.343	7246.58997
777.531	7419.36843
777.718	7336.54388
777.906	7422.57098
778.094	7357.97449
778.282	7368.01309
778.47	7318.01938
778.657	7468.08662
778.845	7442.38981
779.033	7431.94254
779.22	7429.0177
779.408	7551.54197
779.596	7532.93457
779.783	7435.25297
779.971	7362.92353
780.159	7444.20266
780.346	7400.49288
780.534	7394.95288
780.722	7304.83068
780.909	7493.20179
781.097	7129.15601
781.284	7452.92426
781.472	7556.05334
781.659	7443.72906
781.847	7334.1169
782.034	7286.04542
782.222	7336.07364
782.409	7308.08626
782.597	7110.21392
782.784	7208.2584
782.971	7220.08189
783.159	7273.64359
783.346	7102.35147
783.533	7184.62349
783.721	7088.05334
783.908	7314.85991
784.095	6966.31734
784.283	7072.54705
784.47	7174.35011
784.657	7139.74026
784.844	7051.62246
785.032	6907.97202
785.219	6943.20133
785.406	6997.07863
785.593	6951.9081
785.78	7040.98603
785.968	6950.76154
786.155	6980.88887
786.342	6942.32436
786.529	7083.7589
786.716	6794.64234
786.903	6944.37383
787.09	6809.01218
787.277	6955.02209
787.464	6802.64602
787.651	6961.00701
787.838	6793.79457
788.025	6841.96171
788.212	6670.18678
788.399	6826.01095
788.586	6682.16247
788.773	6888.0725
788.96	6685.79777
789.147	6785.57415
789.334	6557.37539
789.521	6749.67415
789.707	6564.71708
789.894	6706.59348
790.081	6601.04695
790.268	6825.496
790.455	6607.61733
790.641	6592.67436
790.828	6531.10099
791.015	6596.58374
791.202	6591.77301
791.388	6629.52641
791.575	6507.5177
791.762	6450.13573
791.948	6365.6476
792.135	6535.57766
792.322	6410.54243
792.508	6371.4597
792.695	6373.44299
792.881	6493.39227
793.068	6315.23459
793.254	6418.8124
793.441	6380.57016
793.627	6415.79374
793.814	6277.09879
794	6337.55706
794.187	6228.54235
794.373	6393.35556
794.56	6210.1141
794.746	6285.75046
794.933	6252.73326
795.119	6165.72671
795.305	6190.59937
795.492	6230.1426
795.678	6132.35644
795.864	6228.39683
796.051	6051.02227
796.237	6124.76959
796.423	6069.16621
796.61	6163.02148
796.796	6000.13429
796.982	6118.63207
797.168	6052.8154
797.355	6116.62206
797.541	6022.89667
797.727	6119.63707
797.913	5939.56352
798.099	6077.42492
798.285	5929.68276
798.471	6070.93035
798.658	5934.21968
798.844	6017.23961
799.03	5897.92743
799.216	5971.82287
799.402	5886.9257
799.588	5994.94215
799.774	5841.67275
799.96	5983.26433
800.146	5753.76626
800.332	5990.91373
800.518	5827.61268
800.704	5992.11067
800.89	5912.44968
801.075	5887.77462
801.261	6000.96166
801.447	5881.21578
801.633	5782.29009
801.819	6002.02288
802.005	5889.6662
802.19	5870.21402
802.376	5931.91881
802.562	5956.68613
802.748	5847.22884
802.934	5884.99795
803.119	5756.49605
803.305	5880.60304
803.491	5841.45256
803.676	5845.30384
803.862	5847.89172
804.048	5853.18606
804.233	5833.53343
804.419	5900.19858
804.605	5637.67619
804.79	5920.31273
804.976	5666.38974
805.161	5761.1714
805.347	5667.7755
805.532	5739.12127
805.718	5642.3997
805.903	5695.73199
806.089	5607.97611
806.274	5741.74199
806.46	5585.89437
806.645	5774.44737
806.831	5702.18609
807.016	5732.38924
807.201	5679.80847
807.387	5649.82242
807.572	5650.30889
807.757	5649.4562
807.943	5583.68803
808.128	5738.03603
808.313	5630.15185
808.499	5616.67114
808.684	5586.9748
808.869	5600.83122
809.054	5540.66012
809.24	5687.10689
809.425	5439.71969
809.61	5649.91533
809.795	5422.54398
809.98	5629.52545
810.165	5423.27583
810.35	5609.13347
810.536	5611.03874
810.721	5499.59968
810.906	5425.79036
811.091	5610.50709
811.276	5400.00539
811.461	5437.6805
811.646	5413.30916
811.831	5353.66339
812.016	5260.8986
812.201	5397.30451
812.386	5346.35471
812.571	5436.42195
812.756	5295.19192
812.941	5243.00274
813.125	5205.83542
813.31	5256.19237
813.495	5310.91187
813.68	5319.39308
813.865	5269.85221
814.05	5211.51505
814.234	5222.53914
814.419	5024.01614
814.604	5082.31851
814.789	5177.18848
814.973	5202.94622
815.158	5067.45122
815.343	5127.24122
815.528	5090.4946
815.712	4967.88684
815.897	4995.88529
816.081	4903.46342
816.266	4793.14967
816.451	4841.79666
816.635	4796.66257
816.82	4615.16669
817.004	4744.69597
817.189	4726.42933
817.374	4675.63549
817.558	4594.9272
817.743	4680.17744
817.927	4548.76628
818.111	4613.72449
818.296	4368.96423
818.48	4530.78283
818.665	4418.88471
818.849	4354.33339
819.034	4321.32743
819.218	4348.72902
819.402	4267.48738
819.587	4299.78463
819.771	4075.43235
819.955	4231.88624
820.14	4119.75705
820.324	4103.74793
820.508	4000.08266
820.692	4081.07504
820.877	3970.14959
821.061	4067.83302
821.245	3927.12417
821.429	3873.17735
821.613	3840.79548
821.798	3758.73508
821.982	3775.41812
822.166	3839.5856
822.35	3838.6549
822.534	3758.8649
822.718	3639.82036
822.902	3842.53898
823.086	3737.35882
823.27	3652.32367
823.454	3644.54208
823.638	3642.06892
823.822	3645.50132
824.006	3613.84044
824.19	3535.08438
824.374	3696.22271
824.558	3408.28555
824.742	3496.5002
824.926	3299.54769
825.11	3570.94326
825.294	3436.56343
825.477	3373.43347
825.661	3402.1789
825.845	3413.90437
826.029	3343.18411
826.213	3537.81062
826.396	3460.06159
826.58	3364.95547
826.764	3476.44257
826.948	3410.05725
827.131	3345.38853
827.315	3387.73479
827.499	3382.88654
827.682	3420.94008
827.866	3353.96222
828.05	3439.18821
828.233	3399.06695
828.417	3410.17494
828.6	3330.94873
828.784	3419.75507
828.967	3290.47298
829.151	3456.90792
829.335	3335.77701
829.518	3370.14062
829.701	3258.87506
829.885	3351.79606
830.068	3330.94996
830.252	3442.34005
830.435	3295.69189
830.619	3320.70504
830.802	3350.01711
830.985	3327.38383
831.169	3237.81716
831.352	3323.99917
831.535	3319.85146
831.719	3305.49388
831.902	3254.66262
832.085	3198.70309
832.269	3229.89426
832.452	3274.95304
832.635	3191.07953
832.818	3327.60915
833.002	3209.70026
833.185	3205.10383
833.368	3204.60723
833.551	3247.02676
833.734	3149.37738
833.917	3290.8161
834.1	3151.19767
834.284	3284.12991
834.467	3198.47289
834.65	3217.69853
834.833	3148.94839
835.016	3261.45641
835.199	3149.91302
835.382	3261.04324
835.565	3028.54442
835.748	3212.59416
835.931	3168.83581
836.114	3133.23384
836.297	3156.22205
836.479	3066.19896
836.662	3079.31052
836.845	3076.3549
837.028	3104.23869
837.211	3149.47418
837.394	3060.44305
837.577	3026.11695
837.759	3004.08685
837.942	3091.3882
838.125	2987.99954
838.308	2907.3023
838.49	3040.49722
838.673	2910.50502
838.856	3003.97734
839.039	2997.22888
839.221	3073.7353
839.404	3115.52647
839.587	3076.28095
839.769	3090.07978
839.952	2893.81584
840.134	3105.19167
840.317	2967.73288
840.499	3030.99393
840.682	2913.85633
840.865	3152.43591
841.047	3023.56119
841.23	3073.0379
841.412	2956.86696
841.595	2999.91991
841.777	2964.85057
841.959	3079.99319
842.142	3053.08904
842.324	2982.7758
842.507	2927.77209
842.689	3006.74802
842.871	3022.15694
843.054	3023.13444
843.236	2891.53825
843.418	3035.53004
843.601	2931.65747
843.783	2995.71043
843.965	3010.71633
844.147	2988.05462
844.33	2971.53062
844.512	3018.75363
844.694	2931.37168
844.876	3043.30727
845.059	2980.47084
845.241	2919.59724
845.423	2942.36212
845.605	2947.50848
845.787	2859.58474
845.969	2868.31717
846.151	2935.71831
846.333	2862.82137
846.515	2747.07969
846.697	2850.00945
846.879	2818.21972
847.061	2973.31268
847.243	2757.70862
847.425	2814.75313
847.607	2884.86537
847.789	2848.10241
847.971	2859.43131
848.153	2885.8839
848.335	2763.47549
848.517	2760.97938
848.699	2828.70505
848.881	2817.49627
849.062	2714.89951
849.244	2802.50312
849.426	2663.09475
849.608	2760.30943
849.789	2764.9967
849.971	2702.83611
850.153	2689.54263
850.335	2739.90687
850.516	2671.9667
850.698	2766.44753
850.88	2741.83241
851.061	2698.02546
851.243	2604.8056
851.425	2731.57501
851.606	2644.76265
851.788	2624.48046
851.969	2534.27642
852.151	2647.75553
852.333	2562.18476
852.514	2645.34084
852.696	2547.36718
852.877	2472.01058
853.059	2586.20849
853.24	2503.75004
853.422	2413.94698
853.603	2569.63418
853.784	2435.59222
853.966	2518.18475
854.147	2432.06545
854.329	2578.7183
854.51	2404.21848
854.691	2354.78186
854.873	2443.2438
855.054	2494.36416
855.235	2282.09215
855.416	2386.35518
855.598	2297.60038
855.779	2379.31639
855.96	2308.79626
856.141	2333.21416
856.323	2216.24567
856.504	2395.14532
856.685	2204.60139
856.866	2261.05725
857.047	2198.45989
857.228	2298.22635
857.409	2222.76926
857.591	2223.21735
857.772	2178.07111
857.953	2111.37995
858.134	2143.1588
858.315	2152.92353
858.496	2065.86799
858.677	2109.8205
858.858	2044.79986
859.039	2111.72282
859.22	1997.36944
859.401	2086.85772
859.582	2042.03491
859.762	2129.6191
859.943	2009.52962
860.124	2103.68531
860.305	1944.86112
860.486	2023.87408
860.667	1902.74085
860.848	2125.09503
861.028	1995.2375
861.209	2085.42858
861.39	1872.95654
861.571	2026.50886
861.751	1920.52903
861.932	1985.10526
862.113	1969.26223
862.293	1940.59237
862.474	1849.14656
862.655	2072.95586
862.835	1936.77998
863.016	2129.33725
863.197	2032.57045
863.377	1988.66048
863.558	1927.56986
863.738	2003.27168
863.919	1939.34161
864.099	1952.3304
864.28	1979.04808
864.46	1950.98124
864.641	1919.14711
864.821	2006.65223
865.002	1838.73141
865.182	1972.4736
865.363	1950.62709
865.543	2025.45561
865.723	1967.93726
865.904	1962.67411
866.084	1796.80374
866.264	1896.08444
866.445	1790.38273
866.625	1921.25627
866.805	1869.68154
866.986	1940.01521
867.166	1753.07145
867.346	1801.06811
867.526	1753.52423
867.707	1764.02277
867.887	1789.80642
868.067	1825.93233
868.247	1719.55312
868.427	1777.37528
868.607	1771.90621
868.788	1727.04654
868.968	1729.77723
869.148	1727.43788
869.328	1706.8452
869.508	1766.78363
869.688	1647.1937
869.868	1673.13483
870.048	1586.59159
870.228	1733.25983
870.408	1745.11384
870.588	1632.5689
870.768	1613.04659
870.948	1583.7256
871.128	1619.78448
871.307	1665.73319
871.487	1576.80047
871.667	1577.20689
871.847	1525.49636
872.027	1576.24045
872.207	1520.43231
872.387	1518.70149
872.566	1487.35379
872.746	1586.19081
872.926	1553.82513
873.106	1523.39024
873.285	1490.10775
873.465	1502.7988
873.645	1470.48066
873.824	1556.8015
874.004	1449.35391
874.184	1456.14286
874.363	1353.77807
874.543	1503.3459
874.723	1444.38441
874.902	1468.11721
875.082	1450.62792
875.261	1419.31422
875.441	1411.00315
875.62	1416.35458
875.8	1371.03928
875.979	1395.61343
876.159	1358.55526
876.338	1499.84936
876.518	1407.4702
876.697	1466.44455
876.876	1349.62342
877.056	1409.96282
877.235	1301.00179
877.415	1349.8998
877.594	1337.30369
877.773	1455.72825
877.953	1288.38955
878.132	1417.53025
878.311	1412.35978
878.49	1376.97754
878.67	1257.92041
878.849	1326.20075
879.028	1361.2217
879.207	1307.46879
879.387	1375.34092
879.566	1415.41506
879.745	1268.37636
879.924	1299.40103
880.103	1303.66004
880.282	1407.5711
880.461	1302.88304
880.64	1350.12739
880.819	1253.25809
880.998	1330.79652
881.178	1314.70175
881.357	1242.80432
881.536	1260.98974
881.715	1302.68125
881.893	1218.56473
882.072	1185.47967
882.251	1209.96195
882.43	1241.71827
882.609	1232.8195
882.788	1206.70141
882.967	1232.1099
883.146	1218.06593
883.325	1178.87401
883.503	1225.38134
883.682	1180.85256
883.861	1188.10623
884.04	1158.87079
884.219	1211.04874
884.397	1159.88023
884.576	1138.62847
884.755	1115.7478
884.933	1106.45522
885.112	1153.05073
885.291	1195.60043
885.469	1140.34836
885.648	1274.41102
885.827	1045.80865
886.005	1190.44594
886.184	1122.59674
886.363	1178.95893
886.541	1151.96065
886.72	1140.34836
886.898	956.91564
887.077	1218.35358
887.255	1074.3769
887.434	1139.82714
887.612	1070.67971
887.791	1185.08528
887.969	1052.32401
888.147	1093.78953
888.326	1016.31046
888.504	1075.33589
888.682	1171.29664
888.861	1136.10639
889.039	1111.75123
889.218	1087.35816
889.396	1020.71385
889.574	1119.03216
889.752	1012.07918
889.931	1018.03679
890.109	1040.5646
890.287	1088.41371
890.465	940.15556
890.643	1123.56786
890.822	1050.03347
891	1078.14633
891.178	1018.98804
891.356	1076.37344
891.534	1071.77179
891.712	1059.88774
891.89	1009.54127
892.068	1056.8375
892.247	1040.38398
892.425	1111.527
892.603	994.81106
892.781	1087.13297
892.959	998.57501
893.137	1092.40138
893.314	1090.02975
893.492	1104.04088
893.67	970.9276
893.848	1085.8926
894.026	1008.91131
894.204	1050.97748
894.382	975.81274
894.56	1001.54157
894.738	978.5829
894.915	989.27742
895.093	1082.65321
895.271	1021.81047
895.449	959.9541
895.626	968.53765
895.804	973.59025
895.982	1010.38611
896.16	1012.18498
896.337	988.46865
896.515	993.11348
896.693	970.5109
896.87	870.70157
897.048	866.6141
897.225	893.77596
897.403	861.34154
897.581	910.64346
897.758	840.51687
897.936	790.93225
898.113	921.70802
898.291	793.60976
898.468	826.81369
898.646	922.80464
898.823	845.44074
899.001	794.68141
899.178	831.90318
899.356	813.37579
899.533	760.92225
899.71	748.10884
899.888	807.84318
900.065	644.87353
900.242	698.25735
900.42	715.01619
900.597	804.62721
900.774	667.24039
900.952	681.70665
901.129	684.12789
901.306	711.29509
901.483	636.29507
901.661	650.31316
901.838	553.17955
902.015	636.87035
902.192	591.97174
902.369	652.92389
902.546	550.76135
902.723	564.95763
902.901	528.78553
903.078	596.8137
903.255	570.42807
903.432	550.98284
903.609	436.47211
903.786	497.63847
903.963	480.92851
904.14	466.77998
904.317	425.44277
904.494	470.04568
904.671	418.68752
904.848	453.57013
905.024	485.04882
905.201	439.15221
905.378	404.00742
905.555	390.6652
905.732	437.73005
905.909	439.72729
906.086	339.04467
906.262	486.07074
906.439	382.01268
906.616	494.21697
906.793	446.26626
906.969	454.58151
907.146	383.95602
907.323	437.24555
907.5	411.18678
907.676	537.93458
907.853	416.92664
908.03	446.56276
908.206	386.24018
908.383	441.11642
908.559	342.8957
908.736	467.70162
908.912	406.11295
909.089	420.25317
909.266	384.96973
909.442	441.19821
909.619	413.26074
909.795	415.5647
909.972	397.68387
910.148	360.52377
910.324	431.50348
910.501	433.27971
910.677	425.77491
910.854	487.14656
911.03	378.58484
911.206	401.10037
911.383	296.74977
911.559	382.25507
911.735	321.41828
911.912	349.53576
912.088	372.03726
912.264	373.89139
912.44	379.64261
912.617	427.7159
912.793	357.38031
912.969	377.89359
913.145	411.2021
913.321	390.13231
913.498	252.28525
913.674	297.12692
913.85	361.11613
914.026	296.9934
914.202	297.07123
914.378	271.36072
914.554	309.75048
914.73	232.00204
914.906	251.29936
915.082	293.79736
915.258	260.51452
915.434	283.60126
915.61	243.65981
915.786	281.79086
915.962	250.48364
916.138	260.30775
916.314	236.67041
916.49	222.14483
916.665	188.54295
916.841	258.20668
917.017	259.19874
917.193	195.305
917.369	266.21313
917.545	241.10986
917.72	221.33552
917.896	212.08207
918.072	241.58492
918.247	245.9184
918.423	241.61254
918.599	208.84809
918.775	170.54394
918.95	176.16305
919.126	193.98596
919.301	261.63413
919.477	219.93862
919.653	250.50268
919.828	202.01448
920.004	220.07194
920.179	140.27076
920.355	99.5685
920.53	233.34836
920.706	237.99609
920.881	241.32828
921.057	190.63342
921.232	189.7575
921.408	194.11786
921.583	216.62784
921.759	221.1422
921.934	224.53695
922.109	226.83777
922.285	258.32415
922.46	170.5698
922.635	173.96028
922.811	230.11199
922.986	190.90798
923.161	178.39847
923.336	186.34335
923.512	181.8993
923.687	208.80055
923.862	179.6148
924.037	150.31462
924.212	154.89521
924.388	189.92393
924.563	188.77983
924.738	182.88909
924.913	250.60756
925.088	197.41974
925.263	187.47886
925.438	122.2679
925.613	185.15881
925.788	198.78833
925.963	182.98621
926.138	205.55547
926.313	198.7959
926.488	231.54867
926.663	241.29178
926.838	171.66518
927.013	168.46778
927.188	180.86711
927.363	130.20612
927.538	149.23818
927.713	212.25098
927.888	172.85848
928.062	191.94204
928.237	156.07682
928.412	162.82406
928.587	158.27974
928.761	152.62167
928.936	167.28159
929.111	193.05574
929.286	143.57268
929.46	156.07682
929.635	187.57158
929.81	126.81689
929.984	203.39006
930.159	145.91055
930.334	97.52522
930.508	180.83953
930.683	171.88078
930.857	185.2995
931.032	126.7879
931.206	157.33764
931.381	126.97718
931.556	126.85077
931.73	219.19326
931.904	140.36704
932.079	78.50164
932.253	103.1223
932.428	81.88682
932.602	42.43038
932.777	86.34802
932.951	120.09533
933.125	99.84053
933.3	146.09465
933.474	125.77535
933.648	128.15103
933.823	90.89146
933.997	108.9657
934.171	83.05682
934.345	25.53283
934.52	46.95969
934.694	96.54565
934.868	74.08563
935.042	87.55997
935.217	32.3238
935.391	72.89694
935.565	43.62819
935.739	77.43886
935.913	43.56437
936.087	46.93627
936.261	74.08563
936.435	-21.8124
936.609	46.97234
936.783	65.02478
936.957	48.13774
937.131	4.13039
937.305	3.00907
937.479	54.91774
937.653	16.53839
937.827	37.94926
938.001	7.52035
938.175	26.68644
938.349	23.3023
938.523	1.881
938.697	-21.8065
938.87	-11.66083
939.044	35.70584
939.218	61.68605
939.392	22.17434
939.566	40.27996
939.739	9.77797
939.913	53.80493
940.087	-18.42309
940.261	22.18204
940.434	-10.53624
940.608	-61.28503
940.782	23.34751
940.955	8.66033
941.129	-16.1672
941.302	-13.91507
941.476	86.53451
941.65	8.65864
941.823	-9.40353
941.997	28.96064
942.17	-26.33755
942.344	-1.50372
942.517	-7.13759
942.691	32.34753
942.864	34.61238
943.038	34.58429
943.211	3.00861
943.385	81.94672
943.558	7.51803
943.731	-58.99955
943.905	4.135
944.078	3.00814
944.251	9.7708
944.425	13.17312
944.598	4.13563
944.771	98.92166
944.945	63.95525
945.118	53.81329
945.291	48.14705
945.464	6.39812
945.638	45.85648
945.811	57.18129
945.984	12.03071
946.157	3.00779
946.33	74.12007
946.503	24.44729
946.677	71.88213
946.85	22.1932
947.023	-2.63055
947.196	-4.88984
947.369	34.60702
947.542	42.51552
947.715	-13.91238
947.888	-7.14227
948.061	19.94012
948.234	-7.14337
948.407	22.1829
948.58	-4.8923
948.753	1.87875
948.926	70.65326
949.099	22.1889
949.271	61.65744
949.444	35.72929
949.617	60.57055
949.79	40.22847
949.963	74.1287
950.136	8.64224
950.308	17.67044
950.481	68.43267
950.654	-39.88723
950.827	17.67933
950.999	35.75423
951.172	26.67822
951.345	27.83608
951.517	42.51387
951.69	44.76257
951.863	-7.14696
952.035	-11.66762
952.208	-31.97573
952.381	59.46382
952.553	36.85117
952.726	57.1835
952.898	-20.67259
953.071	-24.06606
953.243	56.0256
953.416	12.02978
953.588	-11.64913
953.761	38.01535
953.933	-9.39881
954.106	80.83928
954.278	-37.59887
954.45	10.90009
954.623	56.04294
954.795	44.75738
954.967	37.97266
955.14	47.03958
955.312	59.43845
955.484	10.90683
955.657	43.6451
955.829	52.65677
956.001	-2.63126
956.173	-7.14254
956.346	62.79139
956.518	-21.81915
956.69	10.9136
956.862	-2.63381
957.034	-12.78016
957.207	35.74868
957.379	13.15275
957.551	71.87934
957.723	-29.70368
957.895	13.17056
958.067	24.4369
958.239	-48.8597
958.411	8.64757
958.583	-15.04071
958.755	28.97299
958.927	-2.63217
959.099	43.6147
959.271	-36.46879
959.443	65.08262
959.615	19.92701
959.787	13.15275
959.959	-10.53911
960.13	-20.68297
960.302	-2.63146
960.474	26.705
960.646	8.64423
960.818	57.17686
960.99	-1.50529
961.161	49.24599
961.333	-28.57183
961.505	-6.0128
961.677	-39.88878
961.848	14.29199
962.02	1.88107
962.192	36.87401
962.363	59.40168
962.535	9.77911
962.707	-12.78707
962.878	68.45915
963.05	25.55146
963.221	-0.37632
963.393	-13.90594
963.564	-2.63187
963.736	5.26404
963.907	14.29641
964.079	25.5791
964.25	3.00744
964.422	-9.39555
964.593	12.02607
964.765	27.83716
964.936	-20.68377
965.108	16.53967
965.279	31.18722
965.45	-13.91723
965.622	13.17005
965.793	-12.79799
965.964	7.52793
966.136	3.00733
966.307	24.47103
966.478	13.17261
966.65	58.28167
966.821	-13.91292
966.992	41.35877
967.163	8.64557
967.334	-11.66173
967.506	40.24558
967.677	80.87369
967.848	21.04481
968.019	18.80597
968.19	58.25694
968.361	52.69559
968.532	-31.95225
968.703	-55.65282
968.874	-40.9646
969.045	-17.30149
969.216	37.95218
969.387	12.03769
969.558	-47.75889
969.729	40.25181
969.9	-15.04245
970.071	31.22457
970.242	26.6988
970.413	35.70584
970.584	-7.14475
970.755	18.80161
970.926	35.76536
971.097	16.54094
971.267	-16.16408
971.438	34.58829
971.609	50.40785
971.78	-0.3761
971.951	59.41774
972.121	39.12705
972.292	-13.91615
972.463	-13.90916
972.633	42.51552
972.804	13.15681
972.975	-38.72609
973.145	41.34759
973.316	-16.17408
973.487	62.79867
973.657	14.29808
973.828	6.39144
973.998	49.25359
974.169	19.94787
974.339	13.16291
974.51	14.28757
974.68	-28.60394
974.851	42.49577
975.021	1.8802
975.192	19.94554
975.362	7.52326
975.533	-4.88606
975.703	4.1382
975.874	-13.90487
976.044	66.13074
976.214	31.23669
976.385	32.32629
976.555	34.58963
976.725	43.60628
976.896	69.62675
977.066	23.314
977.236	40.26274
977.406	23.32664
977.577	-1.50529
977.747	35.73482
977.917	13.16903
978.087	41.36996
978.257	35.66882
978.427	45.87241
978.598	52.68331
978.768	0.75218
978.938	-20.68617
979.108	9.781
979.278	-25.20831
979.448	21.05374
979.618	51.49756
979.788	17.67522
979.958	26.7019
980.128	8.64991
980.298	14.29586
980.468	71.83755
980.638	-30.83226
980.808	21.05455
980.978	-44.37182
981.148	-8.26633
981.317	-1.50465
981.487	34.59898
981.657	18.80234
981.827	16.54862
981.997	44.78341
982.167	52.66901
982.336	32.37139
982.506	61.70039
982.676	13.15478
982.846	-40.96776
983.015	-2.63106
983.185	-2.63187
983.355	-21.79054
983.524	-30.82037
983.694	-6.01558
983.864	-2.63146
984.033	-8.26983
984.203	39.09981
984.372	37.94488
984.542	-7.1453
984.712	22.18547
984.881	-4.89097
985.051	5.261
985.22	32.32879
985.39	-8.27335
985.559	6.39119
985.728	9.78062
985.898	18.81618
986.067	9.78403
986.237	-43.23955
986.406	16.54926
986.576	39.11947
986.745	43.63495
986.914	47.0341
987.084	-6.02282
987.253	-1.50407
987.422	14.29475
987.591	18.7958
987.761	-2.63391
987.93	-20.69338
988.099	43.6147
988.268	-31.98193
988.438	22.17776
988.607	26.7195
988.776	17.67522
988.945	44.78341
989.114	24.44824
989.283	50.42349
989.452	26.70707
989.621	-41.01213
989.791	4.14028
989.96	-25.19367
990.129	-43.27136
990.298	16.54926
990.467	60.56351
990.636	19.95175
990.805	7.51977
990.974	-2.63432
991.142	37.96241
991.311	5.2608
991.48	-7.14392
991.649	-1.50436
991.818	-31.96583
991.987	-0.37581
992.156	41.40367
992.325	27.82746
992.493	12.02792
992.662	-211.69535
992.831	44.7349
993	-21.81324
993.168	21.05699
993.337	45.89905
993.506	8.65595
993.675	17.67659
993.843	-2.63106
994.012	54.91562
994.181	-15.03722
994.349	48.1396
994.518	21.04886
994.686	70.70784
994.855	-9.40171
995.024	-2.63106
995.192	-26.34061
995.361	-7.13951
995.529	30.07329
995.698	18.78134
995.866	7.52443
996.035	-16.17658
996.203	-17.30216
996.371	9.78252
996.54	34.58963
996.708	6.39193
996.877	4.14109
997.045	-11.6708
997.213	14.29143
997.382	28.9584
997.55	0.7516
997.718	-22.93398
997.887	-10.5342
998.055	3.00744
998.223	10.89841
998.391	27.81243
998.56	45.89549
998.728	31.21369
998.896	69.6457
999.064	40.24558
999.232	-8.26888
999.401	-57.90678
999.569	16.55374
999.737	59.42694
999.905	23.3122
1000.073	61.70039
1000.241	-10.53053
1000.409	61.72435
1000.577	32.31136
1000.745	12.04002
1000.913	5.26567
1001.081	-59.04282
1001.249	7.52122
1001.417	-56.77982
1001.585	-18.43735
1001.753	-19.57035
1001.921	21.06025
1002.089	37.96387
1002.256	-6.02071
1002.424	16.55824
1002.592	21.05618
1002.76	22.18804
1002.928	-6.01744
1003.096	72.97295
1003.263	15.4212
1003.431	19.93626
1003.599	45.85118
1003.767	-4.8904
1003.934	22.19922
1004.102	35.70722
1004.27	4.13643
1004.437	-0.37598
1004.605	23.33207
1004.773	9.78062
1004.94	-3.76119
1005.108	-48.88422
1005.275	13.17056
1005.443	49.24599
1005.61	-26.33448
1005.778	21.05699
1005.945	5.26323
1006.113	15.42299
1006.28	-12.79054
1006.448	23.314
1006.615	-25.20733
1006.783	72.99558
1006.95	13.16036
1007.118	23.32302
1007.285	26.71225
1007.452	13.16291
1007.62	28.97187
1007.787	12.02885
1007.954	33.48697
1008.122	-41.01691
1008.289	17.68138
1008.456	43.65357
1008.623	68.43796
1008.791	22.19664
1008.958	32.34753
1009.125	6.39242
1009.292	32.35756
1009.459	27.84147
1009.627	-7.14089
1009.794	8.6459
1009.961	-26.32327
1010.128	41.41172
1010.295	9.77835
1010.462	61.75077
1010.629	23.34114
1010.796	12.04002
1010.963	50.3942
1011.13	-35.34704
1011.297	10.90852
1011.464	-38.72609
1011.631	-1.50401
1011.798	-0.376
1011.965	49.27264
1012.132	34.59497
1012.299	25.57217
1012.466	-2.63156
1012.633	22.1752
1012.799	3.00919
1012.966	-19.56427
1013.133	15.42777
1013.3	-19.56807
1013.467	-38.69329
1013.633	50.42741
1013.8	-22.95352
1013.967	0.7523
1014.134	9.77759
1014.3	27.83716
1014.467	-9.39844
1014.634	-21.81662
1014.8	8.65595
1014.967	34.58162
1015.134	28.96064
1015.3	-3.76018
1015.467	-24.05029
1015.633	-10.53216
1015.8	-25.2132
1015.966	9.78138
1016.133	-2.63207
1016.3	-43.24623
1016.466	-1.505
1016.632	0.75122
1016.799	-3.76309
1016.965	0.7516
1017.132	-28.60283
1017.298	25.57712
1017.465	17.69168
1017.631	-4.88889
1017.797	47.06336
1017.964	59.44997
1018.13	-71.44071
1018.296	48.1396
1018.463	3.01094
1018.629	34.59898
1018.795	-8.27239
1018.961	-10.53134
1019.128	-3.75844
1019.294	-25.19562
1019.46	27.83716
1019.626	9.7829
1019.792	23.30859
1019.959	15.41226
1020.125	104.56969
1020.291	-17.29347
1020.457	-6.01651
1020.623	-10.51795
1020.789	45.89016
1020.955	6.38799
1021.121	39.12098
1021.287	-15.04303
1021.453	25.57316
1021.619	56.0386
1021.785	-19.56655
1021.951	13.16494
1022.117	7.52443
1022.283	13.16189
1022.449	47.02863
1022.615	43.64849
1022.781	-57.87997
1022.946	26.71535
1023.112	60.5823
1023.278	-20.66782
1023.444	71.90169
1023.61	33.45073
1023.775	15.42598
1023.941	42.50234
1024.107	5.26567
1024.273	-2.63319
1024.438	-17.2888
1024.604	0.75131
1024.77	-101.83631
1024.935	-24.08098
1025.101	24.46912
1025.267	17.67044
1025.432	12.03862
1025.598	36.88116
1025.763	3.00826
1025.929	-10.53461
1026.095	13.16647
1026.26	43.63833
1026.426	0.7523
1026.591	-36.48854
1026.757	14.29586
1026.922	6.39094
1027.087	-17.29815
1027.253	27.82209
1027.418	50.37667
1027.584	-36.47161
1027.749	39.11341
1027.914	-7.1442
1028.08	21.07249
1028.245	22.18033
1028.41	-1.50471
1028.576	-6.01884
1028.741	9.77269
1028.906	-12.77425
1029.072	7.52093
1029.237	12.03536
1029.402	-8.27495
1029.567	-20.67658
1029.732	24.46627
1029.898	-10.53175
1030.063	50.43133
1030.228	39.13616
1030.393	-9.4112
1030.558	25.59299
1030.723	51.5654
1030.888	-1.50442
1031.053	44.78863
1031.218	26.69056
1031.383	25.55146
1031.548	40.23468
1031.713	4.13627
1031.878	8.64657
1032.043	26.705
1032.208	13.16291
1032.373	-4.88795
1032.538	-9.40171
1032.703	10.9022
1032.868	-6.02048
1033.033	31.23669
1033.198	0.75315
1033.362	-35.37306
1033.527	19.93549
1033.692	-19.55292
1033.857	25.56427
1034.021	66.22534
1034.186	18.80597
1034.351	-17.29214
1034.516	36.86829
1034.68	31.21611
1034.845	46.99588
1035.01	16.55182
1035.174	18.81618
1035.339	26.70087
1035.504	25.58505
1035.668	-64.67262
1035.833	1.88049
1035.997	5.26588
1036.162	24.47198
1036.326	3.01423
1036.491	14.28812
1036.655	-26.32837
1036.82	-62.44316
1036.984	-45.46747
1037.149	-48.84653
1037.313	-18.41953
1037.478	8.65192
1037.642	-16.17533
1037.807	23.31941
1037.971	39.11795
1038.135	15.42299
1038.3	-15.05587
1038.464	41.38599
1038.628	57.15695
1038.792	-8.27399
1038.957	14.29475
1039.121	7.5256
1039.285	-21.82593
1039.449	12.03303
1039.614	-8.27816
1039.778	-0.37635
1039.942	-15.04187
1040.106	48.16946
1040.27	-22.94373
1040.434	-55.61419
1040.599	5.26567
1040.763	-0.37584
1040.927	-16.17408
1041.091	-11.66128
1041.255	5.26425
1041.419	47.01587
1041.583	17.66499
1041.747	-25.17038
1041.911	-31.95225
1042.075	-0.37621
1042.239	-6.02516
1042.403	-59.04511
1042.567	-9.39265
1042.731	-7.14447
1042.894	-16.16034
1043.058	50.40785
1043.222	-20.69338
1043.386	-46.61362
1043.55	15.4212
1043.714	-8.27495
1043.877	4.13932
1044.041	15.42478
1044.205	0.75206
1044.369	13.17107
1044.532	8.64891
1044.696	-20.67738
1044.86	49.22133
1045.023	-35.33203
1045.187	5.26649
1045.351	-56.793
1045.514	31.22215
1045.678	-21.80145
1045.841	23.32935
