Data from mildly cloudy_Subt2__15__14-26-33-674.txt Node

Date: Mon Oct 13 14:26:33 EDT 2025
User: brett
Spectrometer: USB4F03499
Trigger mode: 4
Integration Time (sec): 4.400000E-4
Scans to average: 1
Electric dark correction enabled: true
Nonlinearity correction enabled: true
Boxcar width: 0
XAxis mode: Wavelengths
Number of Pixels in Spectrum: 3648
>>>>>Begin Spectral Data<<<<<
345.386	39.89601
345.605	39.89601
345.824	39.89601
346.044	78.3171
346.263	33.11606
346.482	-26.68713
346.701	3.76085
346.92	-5.2652
347.139	12.79186
347.358	-9.77784
347.577	-26.69846
347.796	20.69071
348.015	22.96303
348.234	2.63204
348.453	-18.80428
348.672	9.40341
348.891	15.05334
349.11	3.76144
349.329	-22.19635
349.548	44.416
349.767	-6.3963
349.986	7.14632
350.205	-46.99709
350.424	30.85935
350.643	42.15591
350.862	43.27921
351.08	-18.81448
351.299	-34.59586
351.518	-18.81083
351.737	27.47074
351.956	-12.03753
352.174	-16.5484
352.393	15.05568
352.612	4.88826
352.831	-7.52404
353.049	15.04691
353.268	-0.75278
353.487	16.17387
353.705	-14.29401
353.924	-31.20365
354.143	4.89072
354.361	27.46541
354.58	-10.90965
354.798	47.81576
355.017	-42.48537
355.236	39.89911
355.454	-4.13878
355.673	28.59358
355.891	-19.93678
356.11	-23.3137
356.328	-3.00985
356.547	-3.00903
356.765	0.3763
356.984	12.78641
357.202	25.22464
357.42	21.82649
357.639	8.27901
357.857	-15.42219
358.076	-13.16835
358.294	-12.0338
358.512	-32.34586
358.731	-24.43093
358.949	-32.34086
359.167	-1.88039
359.386	-12.03753
359.604	-12.03287
359.822	6.0204
360.04	2.63316
360.259	-25.57283
360.477	18.43998
360.695	-22.18862
360.913	-18.79919
361.131	-22.18604
361.35	11.65978
361.568	2.63449
361.786	-0.75211
362.004	-44.762
362.222	30.85695
362.44	-25.56986
362.658	29.73323
362.876	-37.98098
363.094	1.5044
363.312	-4.13959
363.53	13.92244
363.749	-34.59052
363.967	-9.77633
364.184	-0.75255
364.402	8.27644
364.62	8.27805
364.838	-33.44772
365.056	17.30798
365.274	-12.03427
365.492	-14.29678
365.71	24.08347
365.928	-32.34336
366.146	36.5079
366.364	-67.3207
366.581	-3.00927
366.799	-17.68115
367.017	-6.39111
367.235	-25.56887
367.453	-4.1367
367.67	-9.78429
367.888	4.89129
368.106	8.27837
368.323	-21.05997
368.541	1.50539
368.759	8.2742
368.977	1.50516
369.194	-50.3702
369.412	15.05802
369.629	39.90687
369.847	-35.73436
370.065	13.92136
370.282	7.14825
370.5	7.14715
370.717	-28.96475
370.935	-0.75232
371.152	11.66928
371.37	0.37611
371.588	-32.34586
371.805	31.98524
372.022	-27.83787
372.24	35.37535
372.457	-37.99127
372.675	7.14659
372.892	26.34949
373.11	24.08067
373.327	6.01993
373.544	26.34232
373.762	-28.95579
373.979	-32.32837
374.196	6.0218
374.414	45.53725
374.631	-12.0394
374.848	33.11863
375.066	-28.95915
375.283	-0.75235
375.5	-27.83572
375.717	-0.75208
375.935	8.28094
376.152	2.63255
376.369	9.40998
376.586	0.37606
376.803	-43.61919
377.02	20.69392
377.238	-18.81083
377.455	35.37535
377.672	-23.32091
377.889	48.93098
378.106	-3.00973
378.323	43.27921
378.54	3.7626
378.757	-8.64779
378.974	-1.88148
379.191	-17.67568
379.408	-18.80791
379.625	37.62605
379.842	-4.13959
380.059	21.81887
380.276	26.34744
380.493	10.53039
380.71	-1.88127
380.927	28.60245
381.143	-12.0394
381.36	21.82819
381.577	-30.0915
381.794	2.63265
382.011	-5.26744
382.228	-12.03194
382.444	-58.25844
382.661	21.82395
382.878	-0.75261
383.095	13.91705
383.311	20.70276
383.528	4.88977
383.745	-3.01032
383.962	-5.26662
384.178	-34.59185
384.395	6.01946
384.612	37.64653
384.828	-36.83221
385.045	-9.78163
385.261	-4.13638
385.478	37.6392
385.695	-1.88061
385.911	-21.06079
386.128	-16.54776
386.344	50.0943
386.561	46.67263
386.777	-27.83572
386.994	-26.6861
387.21	-36.85782
387.427	6.01713
387.643	8.28352
387.86	-14.29235
388.076	-18.81083
388.292	6.01737
388.509	-0.75275
388.725	35.37673
388.942	19.57162
389.158	41.02434
389.374	-10.90922
389.591	-1.87974
389.807	-15.42398
390.023	-39.10082
390.239	-45.86473
390.456	10.53243
390.672	-19.93832
390.888	11.66204
391.104	-6.39531
391.321	-10.90627
391.537	10.54061
391.753	-0.75208
391.969	-6.39531
392.185	21.82395
392.401	-24.44131
392.618	-13.15918
392.834	-8.65617
393.05	8.27644
393.266	1.50504
393.482	-7.52229
393.698	7.15242
393.914	12.78938
394.13	-6.39457
394.346	-25.56492
394.562	-32.34962
394.778	18.43354
394.994	6.02204
395.21	-25.55901
395.426	-17.68458
395.642	13.91866
395.858	10.53774
396.073	47.79159
396.289	-41.36942
396.505	-0.7522
396.721	-5.26724
396.937	-5.26357
397.153	0.37634
397.369	11.65842
397.584	44.43849
397.8	-12.03287
398.016	-13.1709
398.232	9.40341
398.447	-44.74296
398.663	-6.39209
398.879	-22.19205
399.094	11.66023
399.31	-34.59854
399.526	-14.28959
399.741	-8.6555
399.957	-4.13766
400.173	27.49106
400.388	7.14604
400.604	-7.52608
400.82	-4.13734
401.035	19.56858
401.251	-0.75211
401.466	-4.13943
401.682	19.56858
401.897	-26.6933
402.113	-54.88097
402.328	27.48142
402.544	-34.58518
402.759	-3.01032
402.974	16.177
403.19	-32.34586
403.405	-3.00903
403.621	18.44141
403.836	20.69071
404.051	-13.16681
404.267	21.8231
404.482	-12.0408
404.697	25.20407
404.913	1.50557
405.128	22.9461
405.343	-16.55353
405.559	10.5357
405.774	7.1477
405.989	-31.19402
406.204	0.37638
406.42	18.43211
406.635	21.83158
406.85	-14.28297
407.065	-25.57877
407.28	29.724
407.495	-9.78315
407.71	10.52958
407.926	3.76246
408.141	26.34436
408.356	-4.13927
408.571	29.72746
408.786	7.1502
409.001	-7.52055
409.216	-30.09267
409.431	29.72631
409.646	-8.65281
409.861	31.98152
410.076	-32.34086
410.291	-6.39531
410.506	8.27933
410.721	-6.39432
410.936	2.63377
411.15	-30.07638
411.365	-15.42279
411.58	1.50481
411.795	-27.82495
412.01	31.97532
412.225	-25.57382
412.439	-6.39382
412.654	-22.19119
412.869	-3.00833
413.084	-12.0408
413.299	31.9778
413.513	16.18958
413.728	-4.13798
413.943	-17.67841
414.157	9.40487
414.372	-21.05753
414.587	-7.52258
414.801	-36.85639
415.016	35.36849
415.231	22.96303
415.445	27.47501
415.66	-15.42578
415.874	-30.07522
416.089	-1.88127
416.304	57.98472
416.518	-18.8101
416.733	-18.80282
416.947	-13.16835
417.162	6.0169
417.376	-27.84219
417.59	6.01713
417.805	-3.0102
418.019	19.56402
418.234	-10.91092
418.448	-10.90458
418.663	11.66656
418.877	-52.62761
419.091	-23.32634
419.306	-1.8809
419.52	-14.2918
419.734	12.79136
419.949	-49.24535
420.163	11.66158
420.377	-22.19291
420.591	-16.54584
420.806	-18.80937
421.02	21.83328
421.234	-26.71708
421.448	-27.81743
421.663	30.87616
421.877	-49.23207
422.091	-7.52521
422.305	4.88921
422.519	8.27966
422.733	38.7601
422.947	-39.10535
423.161	-8.64746
423.376	3.76304
423.59	-34.59453
423.804	-1.88134
424.018	1.50457
424.232	-33.46709
424.446	-12.03148
424.66	-24.44982
424.874	10.53243
425.088	10.53897
425.302	-37.95753
425.515	-8.65416
425.729	-22.18005
425.943	22.96214
426.157	10.53284
426.371	-30.08917
426.585	-23.30829
426.799	-44.74814
427.013	-4.13814
427.226	-40.25441
427.44	-40.21554
427.654	-34.62268
427.868	-10.89911
428.081	-21.06568
428.295	-1.88068
428.509	8.28062
428.723	-5.26581
428.936	-89.82051
429.15	11.66249
429.364	-13.16886
429.577	22.95233
429.791	-60.52761
430.005	-15.42159
430.218	0.37625
430.432	-5.26581
430.645	-27.8368
430.859	3.76231
431.073	-25.57778
431.286	28.59579
431.5	-12.0366
431.713	-24.43847
431.927	-18.80719
432.14	11.66023
432.354	-24.4574
432.567	19.56326
432.781	3.76246
432.994	34.2417
433.207	-43.61751
433.421	-33.45546
433.634	28.60468
433.848	-21.05835
434.061	15.05334
434.274	-9.77784
434.488	-14.29734
434.701	-18.80137
434.914	-0.75264
435.127	24.07973
435.341	16.18328
435.554	13.91759
435.767	34.26167
435.98	-3.00833
436.194	-34.59185
436.407	29.73092
436.62	-3.01078
436.833	11.66294
437.046	12.79434
437.259	13.91974
437.473	-8.65281
437.686	43.25906
437.899	-13.17295
438.112	-19.92829
438.325	-9.78087
438.538	-0.7522
438.751	-0.75235
438.964	-104.36327
439.177	-27.83249
439.39	-12.03567
439.603	43.29604
439.816	0.37622
440.029	0.37627
440.242	-9.77822
440.455	-23.32091
440.668	9.40706
440.881	41.03711
441.094	21.8248
441.306	18.44643
441.519	15.04925
441.732	-6.39581
441.945	21.82649
442.158	2.63428
442.37	22.955
442.583	2.63418
442.796	15.04983
443.009	-4.13862
443.222	24.0788
443.434	6.0204
443.647	-6.39432
443.86	-13.16835
444.072	3.76217
444.285	3.76348
444.498	16.17387
444.71	21.82649
444.923	34.24303
445.136	-10.90965
445.348	21.8138
445.561	-24.44509
445.773	62.50059
445.986	6.0218
446.198	-8.64779
446.411	-4.13959
446.623	-6.39185
446.836	-17.68184
447.048	7.1477
447.261	4.89243
447.473	-19.92829
447.686	-34.59052
447.898	-15.41563
448.11	13.92515
448.323	-85.26803
448.535	-18.80573
448.748	-26.69124
448.96	-14.29678
449.172	38.76914
449.385	-32.34336
449.597	24.08347
449.809	2.63377
450.021	12.79037
450.234	19.5701
450.446	-12.03101
450.658	-19.94141
450.87	3.76013
451.083	-6.39581
451.295	-13.16121
451.507	-28.96588
451.719	18.43998
451.931	16.18202
452.143	10.53325
452.356	-8.65382
452.568	33.10322
452.78	-43.62763
452.992	-30.07638
453.204	-13.16733
453.416	54.59068
453.628	24.09283
453.84	-24.43753
454.052	2.63387
454.264	-1.88105
454.476	-27.83249
454.688	9.40268
454.9	28.60134
455.112	-23.3155
455.324	7.15131
455.536	31.99021
455.747	-8.65214
455.959	-31.20244
456.171	-57.1518
456.383	39.88362
456.595	8.27998
456.807	-16.55032
457.018	-10.91092
457.23	16.17199
457.442	-4.13798
457.654	13.91813
457.865	-8.65416
458.077	-8.6508
458.289	-30.08917
458.501	-1.88083
458.712	-4.14007
458.924	13.92298
459.136	-60.52761
459.347	22.96125
459.559	-14.29734
459.77	-3.00927
459.982	15.05275
460.194	-6.39432
460.405	-39.10535
460.617	-10.90458
460.828	-24.45645
461.04	-18.805
461.251	-40.23261
461.463	-32.32712
461.674	12.79434
461.886	-18.79774
462.097	4.88996
462.309	-44.73605
462.52	4.88996
462.731	2.63367
462.943	19.57314
463.154	7.14853
463.366	-50.37992
463.577	1.5044
463.788	-41.35025
464	-9.77709
464.211	0.37624
464.422	22.9461
464.634	26.34744
464.845	-16.54904
465.056	37.65679
465.267	-23.3047
465.478	4.89186
465.69	0.37614
465.901	-6.39581
466.112	19.56782
466.323	30.85935
466.534	20.70276
466.745	-50.37603
466.957	26.34436
467.168	-7.52346
467.379	16.17763
467.59	2.63336
467.801	-27.81958
468.012	-43.61582
468.223	17.30865
468.434	2.63387
468.645	38.76462
468.856	-41.36622
469.067	1.50475
469.278	-16.55161
469.489	15.04983
469.7	-36.86495
469.911	17.29926
470.122	17.31201
470.333	27.46861
470.543	35.39049
470.754	-0.75211
470.965	-0.75273
471.176	51.19133
471.387	7.15158
471.598	-4.13638
471.808	0.3763
472.019	7.14576
472.23	-18.80573
472.441	-3.00857
472.651	16.1858
472.862	35.3836
473.073	-17.67568
473.283	11.65978
473.494	-22.19119
473.705	37.63628
473.915	-1.88105
474.126	-3.00845
474.337	-19.94219
474.547	9.40195
474.758	0.37609
474.968	-30.07754
475.179	-4.13782
475.389	-30.0729
475.6	-61.65189
475.81	-4.13686
476.021	-9.78201
476.231	30.8426
476.442	-19.94219
476.652	22.95144
476.863	-27.83356
477.073	-16.54392
477.284	-54.89368
477.494	-24.4432
477.704	-30.08917
477.915	25.207
478.125	12.79683
478.335	-5.26724
478.546	-9.78049
478.756	11.65933
478.966	-19.9306
479.177	19.56402
479.387	-24.44603
479.597	-7.52084
479.807	-22.19119
480.018	21.8231
480.228	4.89072
480.438	8.27676
480.648	27.48142
480.858	-53.73361
481.068	-9.78201
481.279	7.14576
481.489	-9.78049
481.699	-3.00903
481.909	18.44284
482.119	29.72054
482.329	-26.70569
482.539	-7.52229
482.749	3.76246
482.959	-10.90248
483.169	-49.24915
483.379	2.63245
483.589	-10.91049
483.799	9.40305
484.009	30.86294
484.219	4.88902
484.429	-8.65516
484.639	46.67989
484.849	0.37628
485.059	8.2758
485.268	-40.23261
485.478	70.40046
485.688	-12.03706
485.898	10.53529
486.108	-4.13943
486.317	17.30462
486.527	-50.39745
486.737	-9.77784
486.947	-8.65114
487.156	8.27612
487.366	-42.48045
487.576	-17.67158
487.785	-48.12595
487.995	-27.81851
488.205	4.89224
488.414	41.02913
488.624	18.43855
488.834	33.11092
489.043	6.0204
489.253	-54.89792
489.462	-0.75232
489.672	19.56782
489.882	-4.13943
490.091	13.9192
490.301	39.91309
490.51	45.54433
490.72	4.89072
490.929	-21.04778
491.138	2.63346
491.348	19.56251
491.557	15.05568
491.767	8.27452
491.976	-21.06487
492.185	1.50428
492.395	-23.3146
492.604	-19.92599
492.813	-12.038
493.023	6.01923
493.232	-0.75223
493.441	-15.41504
493.651	-1.88119
493.86	25.21385
494.069	-12.04033
494.278	20.69472
494.488	13.92136
494.697	3.76071
494.906	-23.3146
495.115	27.46541
495.324	1.50481
495.533	8.27612
495.743	-40.23728
495.952	15.04925
496.161	7.14936
496.37	22.94966
496.579	0.37638
496.788	18.43712
496.997	7.15353
497.206	16.17825
497.415	15.05158
497.624	13.91974
497.833	8.27933
498.042	18.43497
498.251	-35.72468
498.46	18.43426
498.669	-16.55289
498.878	-23.3074
499.087	-3.0109
499.296	12.7874
499.504	-34.59319
499.713	-6.39234
499.922	19.56706
500.131	-24.43847
500.34	-19.93523
500.549	3.76027
500.757	16.18391
500.966	42.16083
501.175	30.87255
501.384	-24.4432
501.592	-65.02144
501.801	18.43569
502.01	3.76363
502.218	31.97656
502.427	42.16904
502.636	-25.56986
502.844	-9.78353
503.053	16.18014
503.262	0.37609
503.47	10.53162
503.679	-32.35213
503.887	35.37535
504.096	-10.91007
504.304	39.88671
504.513	-0.75258
504.721	48.91009
504.93	-21.06079
505.138	4.88996
505.347	1.50516
505.555	26.33108
505.764	9.40742
505.972	-18.80355
506.18	-27.82495
506.389	38.75258
506.597	-53.75431
506.806	39.89756
507.014	-7.52462
507.222	20.69312
507.431	6.019
507.639	17.30865
507.847	11.66838
508.055	-7.52142
508.264	6.02087
508.472	10.53121
508.68	2.63408
508.888	2.63234
509.096	-0.75261
509.305	-0.75217
509.513	-27.83464
509.721	-8.64846
509.929	-6.3963
510.137	8.2758
510.345	-8.65315
510.553	-0.75232
510.762	27.47608
510.97	-1.88032
511.178	-43.61246
511.386	-13.15968
511.594	11.66204
511.802	6.01783
512.01	-8.65516
512.218	64.74705
512.426	-21.06487
512.634	42.14118
512.842	17.31134
513.049	-28.94573
513.257	16.18265
513.465	-18.80282
513.673	-25.57481
513.881	9.40523
514.089	50.08648
514.297	30.85216
514.504	47.81017
514.712	8.27324
514.92	-10.91049
515.128	30.85935
515.336	-6.39531
515.543	0.37605
515.751	-36.85639
515.959	-17.67158
516.166	6.02087
516.374	7.14604
516.582	-6.39506
516.789	-6.39086
516.997	-36.84642
517.205	-15.41504
517.412	12.79434
517.62	16.17825
517.827	28.60245
518.035	-12.03287
518.243	-15.42638
518.45	1.50446
518.658	-16.55417
518.865	-25.56394
519.073	-13.16376
519.28	-10.90669
519.488	13.92569
519.695	12.79136
519.902	-21.06731
520.11	33.12378
520.317	11.66566
520.525	22.94788
520.732	-3.00997
520.939	-10.90753
521.147	-1.88075
521.354	-1.88075
521.561	-1.88119
521.769	27.46541
521.976	-21.06323
522.183	0.37611
522.391	39.9162
522.598	31.98897
522.805	16.18265
523.012	10.53406
523.219	-13.16733
523.427	-16.54392
523.634	-24.44698
523.841	27.46861
524.048	-0.7524
524.255	18.43426
524.462	-36.85069
524.669	-10.90669
524.877	30.86294
525.084	17.30127
525.291	-27.82925
525.498	34.23638
525.705	-0.75252
525.912	-7.52171
526.119	4.89091
526.326	-8.6508
526.533	-0.75258
526.74	20.6835
526.947	-31.20726
527.153	12.78988
527.36	-1.88134
527.567	-7.522
527.774	21.82903
527.981	26.3413
528.188	-12.038
528.395	-6.39457
528.602	-24.45266
528.808	2.63295
529.015	-63.87791
529.222	6.0176
529.429	-58.26293
529.635	-3.00997
529.842	-15.42159
530.049	1.50475
530.256	21.8248
530.462	31.984
530.669	16.18328
530.876	25.20407
531.082	48.94431
531.289	-16.54009
531.495	-6.39556
531.702	22.94699
531.909	8.27676
532.115	12.78839
532.322	0.37622
532.528	-17.67363
532.735	-0.75235
532.941	27.46861
533.148	-1.88061
533.354	46.669
533.561	35.38773
533.767	-17.67636
533.974	-22.19463
534.18	3.76246
534.387	10.53693
534.593	6.01923
534.799	-5.26601
535.006	8.27676
535.212	-35.72744
535.418	2.63295
535.625	42.16083
535.831	29.72515
536.037	-21.06242
536.244	-18.79991
536.45	-8.6508
536.656	22.95055
536.862	8.27901
537.068	21.82734
537.275	-8.6508
537.481	-12.03287
537.687	-6.39432
537.893	71.548
538.099	-30.095
538.305	3.76013
538.512	-34.58918
538.718	12.78542
538.924	-9.77936
539.13	-39.08574
539.336	15.05392
539.542	1.50452
539.748	-7.52258
539.954	9.40123
540.16	-8.65281
540.366	1.50428
540.572	13.91597
540.778	8.2742
540.984	-25.56789
541.19	60.23449
541.396	-14.29623
541.602	-1.87995
541.807	47.81017
542.013	47.7953
542.219	25.21679
542.425	2.63255
542.631	-22.19549
542.837	3.76013
543.042	-19.936
543.248	-24.43187
543.454	-18.80355
543.66	12.79335
543.865	-13.16477
544.071	12.79335
544.277	-3.00997
544.483	9.40305
544.688	-6.39432
544.894	18.43569
545.1	8.27805
545.305	22.95055
545.511	-0.7524
545.716	16.17825
545.922	-21.05347
546.128	15.04691
546.333	29.73901
546.539	22.94788
546.744	-7.52638
546.95	-12.03474
547.155	24.08534
547.361	-6.39531
547.566	-13.16172
547.772	8.27676
547.977	-27.83572
548.182	4.88939
548.388	-18.80428
548.593	51.19133
548.799	-13.16528
549.004	54.57582
549.209	47.83254
549.415	24.0844
549.62	26.35154
549.825	10.5308
550.031	-15.42339
550.236	-22.18176
550.441	-13.16325
550.646	29.73554
550.852	1.50487
551.057	12.7879
551.262	4.89224
551.467	-30.07522
551.672	-1.88148
551.878	35.3781
552.083	11.66566
552.288	17.30328
552.493	-7.52346
552.698	-39.10082
552.903	-31.20365
553.108	19.56099
553.313	-43.60404
553.518	21.8248
553.723	8.27805
553.928	4.88921
554.133	-8.65348
554.338	-1.88032
554.543	-9.78163
554.748	-21.05835
554.953	-3.0095
555.158	24.07786
555.363	-3.01032
555.568	-7.52287
555.773	-10.91134
555.978	-10.90205
556.182	-22.19205
556.387	17.30462
556.592	-33.46192
556.797	25.21091
557.002	-42.48209
557.206	-0.752
557.411	12.79534
557.616	-17.66885
557.821	-5.26805
558.025	-14.28849
558.23	-3.00973
558.435	11.66249
558.64	-19.93369
558.844	17.30328
559.049	12.79434
559.253	42.13791
559.458	1.50417
559.663	15.05158
559.867	-10.90965
560.072	33.10322
560.276	-19.93832
560.481	-7.52462
560.685	-33.45546
560.89	-18.80428
561.094	-26.69949
561.299	21.81549
561.503	-26.70052
561.708	-13.15765
561.912	34.25367
562.117	-23.31009
562.321	-12.03753
562.525	15.04808
562.73	13.92352
562.934	45.53725
563.139	21.81887
563.343	-15.41623
563.547	10.53529
563.752	-0.7522
563.956	-7.5255
564.16	10.53406
564.364	37.6392
564.569	-1.88054
564.773	-30.08568
564.977	24.0788
565.181	-14.29568
565.385	6.0183
565.59	8.27741
565.794	-13.16274
565.998	11.66747
566.202	17.30462
566.406	-8.6488
566.61	8.2758
566.814	-7.52346
567.018	26.3321
567.222	-10.91219
567.426	-12.0338
567.63	10.5357
567.834	50.0553
568.038	19.57314
568.242	3.76013
568.446	-0.75226
568.65	-4.13718
568.854	-40.23728
569.058	12.78839
569.262	-3.00973
569.466	54.57369
569.67	-27.82818
569.874	2.63204
570.078	17.31134
570.281	10.5308
570.485	9.41108
570.689	-10.90542
570.893	-6.39729
571.097	-8.65281
571.3	11.66158
571.504	11.66204
571.708	-4.13991
571.912	29.72977
572.115	15.04866
572.319	22.95322
572.523	9.40852
572.726	-19.92906
572.93	-6.39655
573.133	-4.13558
573.337	-35.7233
573.541	2.63295
573.744	8.27773
573.948	12.79236
574.151	-12.0338
574.355	20.69713
574.558	4.8911
574.762	-5.2654
574.965	0.37617
575.169	-27.80779
575.372	-17.67636
575.576	27.45903
575.779	-9.77898
575.983	-0.75214
576.186	-3.00938
576.389	20.68991
576.593	1.50492
576.796	15.04458
577	-36.85069
577.203	-5.2656
577.406	7.14881
577.609	10.53284
577.813	-17.67978
578.016	-8.64646
578.219	19.56706
578.423	8.27644
578.626	13.9192
578.829	22.94255
579.032	-15.41504
579.235	17.30395
579.438	-60.52761
579.642	22.9461
579.845	24.0788
580.048	33.10579
580.251	-27.81958
580.454	-37.96339
580.657	1.50492
580.86	17.30798
581.063	-89.79286
581.266	12.78691
581.469	9.40706
581.672	0.37598
581.875	27.47608
582.078	24.06947
582.281	-7.52404
582.484	-33.45417
582.687	-19.93523
582.89	12.79236
583.093	-27.83356
583.296	45.53195
583.499	-14.29734
583.702	27.46116
583.904	-19.93292
584.107	33.11349
584.31	-33.47097
584.513	-27.81529
584.716	1.50475
584.918	17.30529
585.121	-15.4198
585.324	29.72169
585.527	15.04691
585.729	4.88845
585.932	-7.52404
586.135	-37.96485
586.337	-10.90922
586.54	10.52917
586.743	-19.93369
586.945	-26.68404
587.148	-15.42817
587.35	48.93289
587.553	-17.67841
587.755	37.63335
587.958	7.14576
588.161	-5.26357
588.363	-8.65248
588.566	50.0553
588.768	22.96214
588.971	53.43939
589.173	-1.88141
589.375	6.01807
589.578	-16.55161
589.78	-0.75223
589.983	-41.36622
590.185	11.65437
590.387	29.73092
590.59	10.53406
590.792	-9.7786
590.994	47.79716
591.197	-14.29125
591.399	6.01783
591.601	-3.00962
591.803	46.66356
592.006	-0.75235
592.208	15.04458
592.41	48.94241
592.612	22.94521
592.815	13.92569
593.017	30.85336
593.219	22.95768
593.421	62.50789
593.623	-22.19893
593.825	-34.57185
594.027	-30.08103
594.229	82.86126
594.432	25.21581
594.634	9.40487
594.836	34.25367
595.038	-1.88017
595.24	-21.0665
595.442	6.0176
595.644	-36.86353
595.846	1.50423
596.048	-43.61077
596.249	39.88207
596.451	24.0816
596.653	20.69472
596.855	-32.34712
597.057	12.78839
597.259	-8.65248
597.461	-16.54137
597.663	-0.75229
597.864	9.39905
598.066	2.63387
598.268	8.2742
598.47	0.37617
598.671	2.63234
598.873	6.02133
599.075	-0.75211
599.277	-5.26642
599.478	35.37535
599.68	-28.95803
599.882	50.0553
600.083	-5.26601
600.285	-34.57851
600.487	15.05275
600.688	-6.39407
600.89	-5.26662
601.091	11.66023
601.293	-8.65248
601.494	28.59801
601.696	19.57086
601.898	2.63255
602.099	-41.35504
602.301	0.37592
602.502	-3.0095
602.703	1.50452
602.905	-1.88068
603.106	-26.69743
603.308	17.30261
603.509	24.07227
603.711	-23.3119
603.912	26.32803
604.113	-21.06242
604.315	-27.81422
604.516	11.66023
604.717	-0.75194
604.919	-14.29125
605.12	-10.90416
605.321	16.18014
605.522	24.07786
605.724	7.14936
605.925	9.40232
606.126	-7.52287
606.327	30.85216
606.528	-6.39382
606.729	4.89072
606.931	4.89281
607.132	38.75258
607.333	-8.65248
607.534	24.08067
607.735	-1.88112
607.936	4.89034
608.137	17.30328
608.338	6.01737
608.539	-16.54584
608.74	-39.09327
608.941	19.57238
609.142	-10.90205
609.343	26.33823
609.544	46.65451
609.745	-9.78087
609.946	16.17261
610.147	2.63387
610.348	43.27416
610.549	-12.03474
610.75	42.15264
610.95	-6.39705
611.151	-10.90332
611.352	-4.13894
611.553	17.30798
611.754	-9.78011
611.954	17.30328
612.155	-4.13686
612.356	9.4005
612.557	4.89129
612.757	1.50428
612.958	-37.97217
613.159	-23.31009
613.359	10.53488
613.56	-5.26479
613.761	-30.08452
613.961	53.43939
614.162	-15.41921
614.362	15.04458
614.563	-6.39531
614.764	-8.6488
614.964	0.37628
615.165	-12.03567
615.365	25.20896
615.566	0.37606
615.766	-1.88054
615.967	-7.52055
616.167	4.89167
616.368	-16.55032
616.568	-44.74814
616.768	-1.88025
616.969	4.88996
617.169	8.27516
617.37	-15.42279
617.57	1.5044
617.77	-40.23572
617.971	22.94255
618.171	15.05392
618.371	-28.94796
618.571	-37.97364
618.772	19.56175
618.972	-8.65214
619.172	3.76129
619.372	-21.06487
619.573	-1.88054
619.773	-32.33211
619.973	-1.8801
620.173	25.21091
620.373	13.9192
620.573	1.50516
620.774	-0.75197
620.974	-34.60255
621.174	8.27164
621.374	-15.42219
621.574	7.14549
621.774	9.40523
621.974	34.24436
622.174	21.82734
622.374	44.39531
622.574	-13.16172
622.774	-6.39358
622.974	-44.7568
623.174	6.01737
623.374	-19.93446
623.574	12.78988
623.774	-25.57481
623.973	-7.52055
624.173	17.30932
624.373	15.0475
624.573	7.14964
624.773	29.73323
624.973	-23.3137
625.172	52.31547
625.372	-6.39655
625.572	8.2758
625.772	-52.61747
625.971	13.91866
626.171	-8.65181
626.371	19.56402
626.57	4.89129
626.77	9.40305
626.97	8.27709
627.169	41.02275
627.369	7.14825
627.569	26.33823
627.768	-4.13782
627.968	-0.75217
628.167	1.50527
628.367	31.97656
628.566	11.66566
628.766	3.76071
628.965	11.66023
629.165	34.24303
629.364	-6.39407
629.564	13.91866
629.763	6.01783
629.963	28.59579
630.162	-22.18862
630.362	26.33517
630.561	43.29941
630.76	0.37605
630.96	-5.26805
631.159	59.08785
631.358	30.86654
631.558	70.41143
631.757	31.99519
631.956	1.50452
632.155	19.56934
632.355	28.59136
632.554	-15.41682
632.753	-17.66953
632.952	29.73786
633.152	27.46435
633.351	11.66747
633.55	39.88826
633.749	13.9192
633.948	43.29267
634.147	-26.70362
634.346	30.85216
634.545	-19.93369
634.744	26.3321
634.944	-6.39333
635.143	8.27356
635.342	-27.83033
635.541	-15.41563
635.74	-41.36303
635.939	-1.88039
636.138	0.37618
636.336	-0.75214
636.535	-4.13894
636.734	-9.77444
636.933	-8.65248
637.132	30.84857
637.331	-45.87714
637.53	26.33312
637.729	17.30529
637.928	25.20896
638.126	-35.71916
638.325	33.10707
638.524	-14.29401
638.723	-28.94461
638.921	9.4056
639.12	17.30663
639.319	-8.65449
639.518	28.60134
639.716	-18.80573
639.915	-13.15867
640.114	21.83073
640.312	11.65888
640.511	1.50411
640.71	4.88883
640.908	-6.39854
641.107	-32.32214
641.305	-17.67978
641.504	31.97656
641.702	10.53733
641.901	-32.32712
642.099	-15.42219
642.298	55.70389
642.496	-49.24345
642.695	-0.75226
642.893	-1.8809
643.092	24.07973
643.29	-0.75226
643.489	-4.13542
643.687	-36.84784
643.885	-7.52113
644.084	-52.62152
644.282	-6.3916
644.48	-16.54904
644.679	0.37598
644.877	-37.98098
645.075	20.69312
645.274	-15.41801
645.472	-19.92137
645.67	-36.84073
645.868	-24.43564
646.067	-46.99528
646.265	-15.41266
646.463	-7.52287
646.661	-17.67226
646.859	4.89053
647.057	-22.17748
647.256	12.79434
647.454	50.05335
647.652	10.53447
647.85	19.56402
648.048	20.69633
648.246	20.68831
648.444	6.02157
648.642	7.14659
648.84	-7.522
649.038	45.54256
649.236	68.16818
649.434	3.76115
649.632	13.92515
649.83	20.69553
650.028	-52.61747
650.226	-7.52084
650.423	-12.03893
650.621	-9.77595
650.819	13.9192
651.017	6.01783
651.215	18.4364
651.413	-19.92368
651.61	30.86294
651.808	15.04167
652.006	-43.61246
652.204	25.20798
652.401	4.89243
652.599	44.39703
652.797	-0.75223
652.995	1.50382
653.192	-1.88075
653.39	11.65662
653.588	-1.88032
653.785	3.76129
653.983	-6.39481
654.18	-16.53882
654.378	-70.64148
654.576	-33.44129
654.773	7.14825
654.971	-17.67363
655.168	-13.16477
655.366	55.69523
655.563	-5.26887
655.761	41.0116
655.958	-22.18433
656.156	42.14609
656.353	-5.26438
656.55	1.50423
656.748	-15.42159
656.945	28.59247
657.143	21.82649
657.34	7.14576
657.537	-36.85212
657.735	-13.16376
657.932	2.63306
658.129	-0.752
658.326	56.84518
658.524	-19.92906
658.721	-19.93678
658.918	2.63224
659.115	24.09002
659.313	20.69472
659.51	-6.39333
659.707	11.66068
659.904	8.27676
660.101	39.88207
660.298	-8.65013
660.496	21.82226
660.693	-24.43942
660.89	15.04808
661.087	15.05626
661.284	42.14773
661.481	-14.29014
661.678	-28.94684
661.875	-19.9306
662.072	24.0788
662.269	-23.3128
662.466	10.53325
662.663	20.69553
662.86	-10.90374
663.057	-26.7119
663.254	16.177
663.45	20.69794
663.647	51.18934
663.844	8.2758
664.041	42.14445
664.238	-54.87039
664.435	-25.55605
664.631	11.66611
664.828	17.30395
665.025	39.91465
665.222	13.91759
665.419	43.27752
665.615	3.76056
665.812	-17.67499
666.009	25.20505
666.205	9.40852
666.402	42.14118
666.599	2.63449
666.795	6.01667
666.992	8.27998
667.188	3.76173
667.385	13.92298
667.582	47.7953
667.778	-6.39358
667.975	42.14118
668.171	38.78121
668.368	4.88939
668.564	1.50434
668.761	1.50469
668.957	-9.78087
669.154	28.59468
669.35	-19.94219
669.547	26.33414
669.743	-6.39655
669.939	57.9509
670.136	13.92082
670.332	-7.51909
670.528	-15.42219
670.725	-0.7522
670.921	17.30932
671.117	28.59136
671.314	29.73208
671.51	34.23373
671.706	25.21091
671.902	3.76115
672.099	-16.55032
672.295	-8.64779
672.491	-9.78315
672.687	6.0169
672.883	0.37609
673.08	21.82141
673.276	6.01946
673.472	-8.64612
673.668	-5.26601
673.864	7.14604
674.06	8.27612
674.256	29.72631
674.452	-6.39457
674.648	1.50469
674.844	-19.936
675.04	-4.1375
675.236	8.27709
675.432	-35.70263
675.628	-18.79919
675.824	20.68751
676.02	6.02017
676.216	13.9192
676.412	16.17825
676.608	-32.32712
676.804	-21.05916
676.999	11.65752
677.195	-30.08568
677.391	25.20603
677.587	-34.5972
677.783	-14.2907
677.978	-5.26662
678.174	28.58914
678.37	-14.28407
678.566	10.53039
678.761	0.37618
678.957	-5.26377
679.153	-1.88068
679.348	13.91597
679.544	-32.33961
679.74	-1.87995
679.935	-5.26581
680.131	6.019
680.327	43.28089
680.522	12.78839
680.718	24.08628
680.913	33.09809
681.109	42.16411
681.304	39.90066
681.5	6.019
681.695	-6.39111
681.891	-14.28849
682.086	39.89446
682.282	-17.67704
682.477	-144.72016
682.672	33.11221
682.868	17.30663
683.063	-23.3182
683.259	4.88883
683.454	-21.05672
683.649	12.79087
683.845	-24.44509
684.04	24.07973
684.235	18.43497
684.43	19.55872
684.626	25.21875
684.821	7.1477
685.016	12.79236
685.211	-113.34713
685.407	-30.08336
685.602	-34.57718
685.797	-26.69227
685.992	7.14632
686.187	-4.13846
686.382	30.84977
686.577	-35.71916
686.773	59.07638
686.968	-7.52346
687.163	50.06503
687.358	-10.90627
687.553	-15.41266
687.748	-12.03893
687.943	10.52754
688.138	3.7626
688.333	6.0162
688.528	1.50469
688.723	-46.97173
688.918	-6.39531
689.112	63.62145
689.307	-57.12755
689.502	21.81634
689.697	16.18202
689.892	31.97161
690.087	-8.65348
690.282	-18.79991
690.476	9.40852
690.671	3.76013
690.866	-4.13798
691.061	41.01001
691.255	-14.29623
691.45	-8.64946
691.645	31.9927
691.84	10.5357
692.034	37.63774
692.229	3.76056
692.424	-5.2654
692.618	48.92528
692.813	0.37611
693.007	-6.39234
693.202	17.30932
693.397	28.58693
693.591	9.40596
693.786	-24.42905
693.98	-8.65382
694.175	48.93098
694.369	-57.12755
694.564	30.84379
694.758	-8.65013
694.953	-17.6709
695.147	-10.90248
695.342	-10.90458
695.536	29.73323
695.73	-3.00799
695.925	24.08534
696.119	-32.32214
696.313	-10.90627
696.508	24.0788
696.702	3.76333
696.896	0.37608
697.091	6.01783
697.285	-0.75226
697.479	-13.1607
697.673	26.32497
697.868	-58.25619
698.062	47.78603
698.256	-19.92445
698.45	1.50434
698.644	27.47608
698.839	54.55251
699.033	-25.57283
699.227	48.93479
699.421	-9.77747
699.615	-22.18519
699.809	-15.4198
700.003	21.81212
700.197	-30.08336
700.391	27.45584
700.585	18.43998
700.779	-17.6668
700.973	-18.80209
701.167	7.14493
701.361	22.95411
701.555	1.50469
701.749	4.89015
701.943	27.46541
702.137	-10.90753
702.331	7.14604
702.525	-18.79774
702.718	42.14445
702.912	33.12507
703.106	6.01458
703.3	22.96125
703.494	52.30937
703.687	4.8911
703.881	3.76187
704.075	4.89072
704.269	43.28089
704.462	22.96035
704.656	34.24037
704.85	11.66384
705.043	24.076
705.237	7.15047
705.431	30.85455
705.624	-0.75232
705.818	17.29793
706.012	20.69553
706.205	18.42926
706.399	-3.00892
706.592	36.4909
706.786	-19.93292
706.979	28.59912
707.173	-22.18347
707.366	4.88939
707.56	24.0788
707.753	16.17074
707.947	15.04983
708.14	-4.1351
708.333	7.14964
708.527	-5.26296
708.72	-5.26662
708.914	-4.13622
709.107	30.86054
709.3	50.03782
709.494	19.57162
709.687	29.71019
709.88	1.50452
710.073	-23.302
710.267	43.27416
710.46	25.19919
710.653	-14.28849
710.846	25.20114
711.04	21.82141
711.233	34.23108
711.426	42.15591
711.619	61.35076
711.812	-10.91176
712.005	-37.95753
712.198	26.33517
712.391	7.14383
712.585	-24.44509
712.778	12.78443
712.971	2.63326
713.164	-5.26276
713.357	50.06892
713.55	8.27452
713.743	3.76158
713.936	11.66204
714.129	8.27837
714.322	28.58582
714.514	11.66158
714.707	30.84857
714.9	9.40414
715.093	2.63224
715.286	1.50487
715.479	19.55872
715.672	7.14576
715.864	15.04284
716.057	-33.45933
716.25	6.0176
716.443	-19.93292
716.636	38.73907
716.828	27.47608
717.021	-18.80137
717.214	7.14825
717.406	10.52876
717.599	-42.47062
717.792	-88.60624
717.984	0.37621
718.177	8.27228
718.37	-1.88156
718.562	30.85575
718.755	21.82734
718.947	-17.6668
719.14	-6.39308
719.333	-19.92752
719.525	-5.26601
719.718	37.6173
719.91	-31.20003
720.103	-10.90248
720.295	-41.35025
720.487	28.59136
720.68	-4.13846
720.872	34.23506
721.065	-36.83647
721.257	-25.56887
721.449	8.27676
721.642	22.95055
721.834	3.76202
722.026	44.3867
722.219	-1.88127
722.411	21.8231
722.603	-25.56986
722.796	27.46116
722.988	33.12636
723.18	20.69312
723.372	20.69794
723.565	24.0844
723.757	-43.61414
723.949	-9.77294
724.141	-4.13782
724.333	35.37123
724.525	9.4056
724.717	11.66113
724.91	19.55645
725.102	8.2742
725.294	-33.46063
725.486	33.11735
725.678	12.78988
725.87	-3.00729
726.062	8.27837
726.254	1.50399
726.446	-12.03567
726.638	3.761
726.83	-17.67841
727.022	-15.41325
727.213	19.5701
727.405	31.97532
727.597	-10.90458
727.789	-26.68301
727.981	12.7879
728.173	30.84738
728.365	-13.16121
728.556	-3.00868
728.748	11.66204
728.94	-6.39135
729.132	42.16083
729.324	3.75984
729.515	-6.39432
729.707	-21.05184
729.899	3.76187
730.09	-8.64779
730.282	-0.7524
730.474	-10.90248
730.665	2.63316
730.857	28.58693
731.049	-32.33336
731.24	41.01638
731.432	20.69071
731.623	11.65978
731.815	-10.90627
732.006	24.07134
732.198	-10.90585
732.389	0.37596
732.581	6.02063
732.772	33.09297
732.964	19.5701
733.155	12.79285
733.347	19.56858
733.538	28.57919
733.729	44.42291
733.921	-0.75208
734.112	1.50498
734.304	42.15428
734.495	2.63336
734.686	46.65994
734.877	22.95233
735.069	16.17011
735.26	15.04633
735.451	-18.79411
735.643	-22.19549
735.834	33.10579
736.025	31.9927
736.216	1.50399
736.407	-41.35025
736.599	-16.54137
736.79	6.02017
736.981	51.18138
737.172	-12.03148
737.363	-14.28297
737.554	11.65978
737.745	-6.39111
737.936	26.34334
738.127	8.27292
738.318	36.51642
738.509	41.01797
738.7	28.60023
738.891	1.50411
739.082	-13.15816
739.273	-31.19522
739.464	-7.52229
739.655	21.81803
739.846	24.08628
740.037	-8.64846
740.228	-8.6508
740.419	39.88362
740.609	25.20896
740.8	-5.26255
740.991	-4.13734
741.182	26.32803
741.373	-23.3137
741.563	34.22843
741.754	26.34334
741.945	6.01713
742.136	21.82649
742.326	38.76763
742.517	20.69713
742.708	27.45159
742.898	-10.90627
743.089	26.33108
743.28	-22.1869
743.47	-25.56394
743.661	-3.00985
743.851	25.21189
744.042	-16.54712
744.233	-0.75223
744.423	-6.39432
744.614	44.40909
744.804	-22.18347
744.995	74.92107
745.185	-3.00903
745.376	26.33108
745.566	1.5044
745.756	20.6843
745.947	-15.41682
746.137	46.64547
746.328	2.63285
746.518	12.78889
746.708	-13.16325
746.899	13.91328
747.089	29.73439
747.279	-0.75197
747.47	11.66113
747.66	4.88883
747.85	-22.19033
748.04	19.55872
748.231	18.4314
748.421	42.12812
748.611	12.79087
748.801	21.81887
748.991	3.761
749.182	2.63224
749.372	-5.26764
749.562	7.14466
749.752	10.53652
749.942	-6.39111
750.132	16.18328
750.322	27.45584
750.512	-14.29125
750.702	26.33619
750.892	28.59579
751.082	29.72169
751.272	11.66113
751.462	10.53366
751.652	8.27805
751.842	25.19822
752.032	-5.26744
752.222	22.94166
752.412	8.27388
752.602	-3.00741
752.792	-7.52404
752.981	0.37601
753.171	-30.07871
753.361	19.55947
753.551	31.98648
753.741	24.07134
753.93	2.63336
754.12	-6.39012
754.31	6.01993
754.5	48.91199
754.689	-13.16733
754.879	2.63173
755.069	-15.42219
755.258	8.2742
755.448	13.92082
755.638	41.00842
755.827	-23.3119
756.017	17.29659
756.206	-0.75232
756.396	18.42926
756.586	1.50475
756.775	2.63234
756.965	35.37535
757.154	-9.77784
757.344	19.5663
757.533	27.46541
757.723	16.17637
757.912	18.43069
758.101	48.93289
758.291	52.3114
758.48	34.24436
758.67	8.27484
758.859	20.69312
759.048	4.88977
759.238	-17.67978
759.427	11.65752
759.616	4.88939
759.806	10.53162
759.995	-33.4658
760.184	51.17542
760.373	8.27612
760.563	15.04458
760.752	-0.75226
760.941	-5.26398
761.13	3.76173
761.319	29.71248
761.509	31.98524
761.698	13.91543
761.887	26.33721
762.076	21.81718
762.265	-0.7522
762.454	77.18001
762.643	22.95233
762.832	28.58914
763.021	-24.44036
763.21	30.84021
763.399	0.37621
763.588	-17.66953
763.777	28.59247
763.966	-21.04292
764.155	-1.88083
764.344	19.55796
764.533	11.66475
764.722	50.06308
764.911	39.88362
765.1	-5.26499
765.288	-4.13654
765.477	6.01527
765.666	13.92136
765.855	12.78592
766.044	-4.13734
766.232	35.36026
766.421	6.0176
766.61	36.49656
766.799	-41.35504
766.987	-17.6668
767.176	-30.07871
767.365	8.27356
767.553	3.761
767.742	-7.52142
767.931	17.30798
768.119	1.50364
768.308	7.14825
768.497	9.40123
768.685	-1.88075
768.874	21.81127
769.062	15.051
769.251	28.58804
769.439	17.30865
769.628	29.72515
769.816	17.30663
770.005	-23.3065
770.193	20.69472
770.382	50.06308
770.57	39.89756
770.758	38.76612
770.947	11.66566
771.135	16.17512
771.323	-8.65114
771.512	13.91382
771.7	-0.75252
771.888	-13.15613
772.077	43.27921
772.265	31.97161
772.453	7.14604
772.642	15.03993
772.83	11.66294
773.018	35.36574
773.206	-1.88083
773.394	0.37615
773.583	9.40305
773.771	9.4005
773.959	22.95144
774.147	-16.53499
774.335	6.02017
774.523	7.14632
774.711	1.50492
774.899	33.10707
775.087	22.95768
775.275	-5.26337
775.463	7.14742
775.651	31.97284
775.839	10.53243
776.027	-0.752
776.215	-0.7524
776.403	33.11478
776.591	-22.18947
776.779	22.94344
776.967	2.63275
777.155	20.68751
777.343	11.66339
777.531	21.81887
777.718	-14.29125
777.906	18.42997
778.094	-14.28904
778.282	20.69392
778.47	3.76129
778.657	-21.04373
778.845	2.63346
779.033	20.68831
779.22	-23.3119
779.408	37.61439
779.596	11.66339
779.783	37.61876
779.971	6.01783
780.159	16.16761
780.346	16.17324
780.534	24.0788
780.722	11.66113
780.909	20.67871
781.097	-13.16376
781.284	68.12836
781.472	47.79716
781.659	3.76129
781.847	3.76144
782.034	27.46222
782.222	-41.35823
782.409	27.45478
782.597	-0.75229
782.784	11.66204
782.971	-19.92445
783.159	52.29314
783.346	-40.22795
783.533	-27.81851
783.721	10.5357
783.908	25.20505
784.095	1.50452
784.283	21.81634
784.47	21.82226
784.657	21.81803
784.844	-5.2654
785.032	18.42855
785.219	28.60579
785.406	18.42926
785.593	-9.77709
785.78	-1.88003
785.968	44.42291
786.155	66.98744
786.342	-0.75229
786.529	15.044
786.716	-17.67499
786.903	-15.41206
787.09	-22.18519
787.277	52.32564
787.464	-3.00775
787.651	-15.41504
787.838	39.89756
788.025	18.42855
788.212	6.0176
788.399	37.62022
788.586	-26.6933
788.773	19.55116
788.96	-27.8271
789.147	25.20017
789.334	0.37606
789.521	26.32904
789.707	39.90066
789.894	2.63234
790.081	43.2893
790.268	18.43712
790.455	24.07413
790.641	-3.00706
790.828	22.95055
791.015	28.57698
791.202	42.15755
791.388	33.09553
791.575	-24.42623
791.762	18.42143
791.948	18.43712
792.135	-5.26418
792.322	-35.70951
792.508	-41.32637
792.695	34.26034
792.881	26.33823
793.068	42.16083
793.254	39.86971
793.441	15.051
793.627	2.63214
793.814	-7.52113
794	-4.1367
794.187	-15.41861
794.373	30.83425
794.56	-18.79629
794.746	3.76056
794.933	24.09002
795.119	43.26409
795.305	15.04983
795.492	36.48666
795.678	-0.75223
795.864	13.91543
796.051	-34.59052
796.237	-21.04616
796.423	11.65752
796.61	0.37593
796.796	2.63387
796.982	27.46328
797.168	3.76187
797.355	30.84738
797.541	4.89072
797.727	38.74207
797.913	-26.68404
798.099	-23.30111
798.285	29.72054
798.471	2.63255
798.658	-17.6709
798.844	-24.42999
799.03	-3.00892
799.216	27.46328
799.402	-22.18433
799.588	38.75408
799.774	-5.26601
799.96	-4.13446
800.146	-22.18261
800.332	-1.87959
800.518	-16.5484
800.704	22.93723
800.89	20.69392
801.075	-13.16172
801.261	30.86654
801.447	41.01001
801.633	-16.5484
801.819	26.32701
802.005	-18.80355
802.19	61.34599
802.376	31.98897
802.562	9.39905
802.748	-7.522
802.934	37.62313
803.119	3.7626
803.305	34.23506
803.491	27.46754
803.676	50.05335
803.862	16.17951
804.048	1.50364
804.233	3.75955
804.419	53.42902
804.605	-3.00764
804.79	53.44562
804.976	-8.64913
805.161	25.19724
805.347	48.92338
805.532	11.66158
805.718	15.05158
805.903	30.84618
806.089	25.20603
806.274	22.94699
806.46	16.18014
806.645	79.43585
806.831	9.40596
807.016	21.82395
807.201	-1.88083
807.387	33.10707
807.572	-13.15867
807.757	45.55142
807.943	10.53284
808.128	43.26409
808.313	10.52958
808.499	-6.38987
808.684	21.82988
808.869	6.01527
809.054	-39.08273
809.24	22.93811
809.425	-18.80209
809.61	21.81127
809.795	-18.80209
809.98	30.84977
810.165	-32.33336
810.35	50.04947
810.536	-13.16325
810.721	7.14466
810.906	9.40341
811.091	4.88845
811.276	-6.39283
811.461	11.65888
811.646	-1.88083
811.831	11.65842
812.016	29.724
812.201	42.11508
812.386	62.51521
812.571	54.56098
812.756	-5.2652
812.941	-6.39234
813.125	13.91866
813.31	15.04051
813.495	-4.13622
813.68	15.04284
813.865	8.27741
814.05	34.23904
814.234	19.56934
814.419	-24.43093
814.604	10.53406
814.789	37.62459
814.973	21.82395
815.158	27.45903
815.343	52.31547
815.528	-7.51909
815.712	4.88996
815.897	44.39531
816.081	25.21581
816.266	-9.77558
816.451	29.73323
816.635	-12.02962
816.82	8.27548
817.004	39.88207
817.189	3.76085
817.374	2.63275
817.558	-0.7522
817.743	-3.00857
817.927	-8.64746
818.111	45.52842
818.296	10.53121
818.48	-3.00683
818.665	-4.13654
818.849	15.04167
819.034	13.91759
819.218	22.93989
819.402	10.53039
819.587	1.50376
819.771	4.88883
819.955	24.07507
820.14	-45.85236
820.324	7.14383
820.508	-14.29291
820.692	45.51606
820.877	18.43354
821.061	31.97037
821.245	31.99643
821.429	-4.13431
821.613	3.76027
821.798	-8.64813
821.982	-19.93369
822.166	21.81887
822.35	15.04983
822.534	38.74657
822.718	-9.7752
822.902	36.49373
823.086	8.27741
823.27	7.14466
823.454	-0.75232
823.638	47.78417
823.822	9.40596
824.006	17.29993
824.19	31.984
824.374	31.98276
824.558	-6.39432
824.742	47.76936
824.926	-26.6933
825.11	57.96216
825.294	-5.26418
825.477	19.54512
825.661	39.89291
825.845	25.2031
826.029	8.27741
826.213	35.363
826.396	25.20896
826.58	4.88713
826.764	36.50223
826.948	18.42855
827.131	4.88958
827.315	7.14549
827.499	12.79285
827.682	37.63774
827.866	-0.7524
828.05	4.88845
828.233	42.14936
828.417	3.76042
828.6	-22.18261
828.784	28.5825
828.967	-14.28518
829.151	1.50364
829.335	-6.39457
829.518	-1.87988
829.701	3.76246
829.885	10.53121
830.068	7.14632
830.252	41.01638
830.435	9.40706
830.619	2.63204
830.802	38.7601
830.985	3.76071
831.169	8.2758
831.352	4.88826
831.535	20.69392
831.719	10.52836
831.902	25.20994
832.085	-4.13574
832.269	-13.16121
832.452	42.13955
832.635	54.57794
832.818	-5.26398
833.002	47.78417
833.185	-22.1809
833.368	-12.0366
833.551	28.59025
833.734	3.76202
833.917	21.81296
834.1	10.53121
834.284	76.01949
834.467	12.78988
834.65	63.58932
834.833	15.04925
835.016	16.17136
835.199	24.08534
835.382	26.32803
835.565	8.27612
835.748	24.06575
835.931	36.49939
836.114	15.04167
836.297	-9.77709
836.479	9.4005
836.662	2.63316
836.845	19.55645
837.028	-0.75235
837.211	26.33721
837.394	20.69151
837.577	18.42712
837.759	16.17825
837.942	11.65707
838.125	15.04691
838.308	-14.28628
838.49	61.36269
838.673	-121.18039
838.856	22.95768
839.039	25.19724
839.221	30.85455
839.404	12.78592
839.587	-3.00833
839.769	20.6859
839.952	4.88845
840.134	43.26577
840.317	-0.7524
840.499	12.78542
840.682	-45.85236
840.865	48.91199
841.047	22.955
841.23	41.0132
841.412	-0.75226
841.595	-16.54009
841.777	4.89072
841.959	42.13465
842.142	-16.54776
842.324	-61.59499
842.507	2.63295
842.689	51.17542
842.871	31.99145
843.054	29.71939
843.236	-17.67021
843.418	-4.13638
843.601	10.53406
843.783	3.75955
843.965	10.53243
844.147	34.23771
844.33	-14.28959
844.512	-3.0081
844.694	0.37605
844.876	46.64185
845.059	3.76027
845.241	-7.51735
845.423	19.56251
845.605	-7.51996
845.787	-49.23966
845.969	15.04342
846.151	-5.2656
846.333	52.31344
846.515	28.59468
846.697	-41.31685
846.879	13.91651
847.061	56.81427
847.243	-26.6861
847.425	7.14604
847.607	29.72977
847.789	27.44417
847.971	38.76914
848.153	25.2031
848.335	2.63306
848.517	6.0169
848.699	25.20798
848.881	21.81549
849.062	-7.52317
849.244	16.17261
849.426	9.4045
849.608	48.93479
849.789	17.31134
849.971	-10.90079
850.153	-34.58384
850.335	24.07134
850.516	-10.90416
850.698	46.65089
850.88	20.69633
851.061	8.27292
851.243	2.63295
851.425	44.39014
851.606	8.2742
851.788	13.9122
851.969	11.65842
852.151	38.75559
852.333	-62.76636
852.514	31.98152
852.696	-3.00845
852.877	13.91382
853.059	43.27921
853.24	-32.33211
853.422	-58.22706
853.603	21.81549
853.784	-31.20967
853.966	-3.00729
854.147	-28.94684
854.329	0.37599
854.51	-27.82818
854.691	-10.90374
854.873	35.36986
855.054	38.74207
855.235	-31.20485
855.416	11.65707
855.598	-18.80137
855.779	15.04342
855.96	48.92908
856.141	27.45478
856.323	-12.03287
856.504	-6.39209
856.685	10.53121
856.866	-6.38913
857.047	34.23771
857.228	8.27164
857.409	3.76187
857.591	13.91167
857.772	2.63316
857.953	-15.41028
858.134	22.95411
858.315	-13.15562
858.496	-21.05265
858.677	10.52958
858.858	-4.13734
859.039	44.39875
859.22	10.53202
859.401	31.98152
859.582	52.3114
859.762	15.03761
859.943	0.37606
860.124	38.74507
860.305	6.01783
860.486	-3.00764
860.667	-3.00845
860.848	27.45053
861.028	17.3006
861.209	7.14576
861.39	33.12121
861.571	3.76027
861.751	-21.06079
861.932	-32.31841
862.113	9.40779
862.293	17.29793
862.474	-34.58784
862.655	42.13138
862.835	-8.64946
863.016	57.9509
863.197	43.2893
863.377	15.03297
863.558	27.46116
863.738	54.55463
863.919	-1.88061
864.099	11.65842
864.28	35.38498
864.46	-17.66953
864.641	15.05158
864.821	35.35889
865.002	-6.39382
865.182	13.91328
865.363	13.91813
865.543	21.81718
865.723	46.65632
865.904	27.45903
866.084	-27.81851
866.264	-21.04778
866.445	-25.56196
866.625	10.52958
866.805	11.66339
866.986	25.19919
867.166	-7.52229
867.346	-36.81945
867.526	-18.80137
867.707	35.36026
867.887	25.20896
868.067	31.97161
868.247	-6.39259
868.427	12.78049
868.607	-23.3182
868.788	30.83782
868.968	-26.69846
869.148	30.84618
869.328	-3.00845
869.508	27.45584
869.688	10.5308
869.868	-3.00752
870.048	-10.90796
870.228	21.81212
870.408	7.14742
870.588	22.94432
870.768	15.04575
870.948	20.6819
871.128	-10.90669
871.307	25.19724
871.487	-0.75208
871.667	-8.64579
871.847	13.91436
872.027	9.40305
872.207	-13.1607
872.387	25.20603
872.566	20.69231
872.746	29.70904
872.926	9.4045
873.106	12.78691
873.285	37.62897
873.465	11.65797
873.645	-26.6964
873.824	42.13465
874.004	15.04808
874.184	0.37606
874.363	4.88996
874.543	24.0732
874.723	24.0816
874.902	17.29525
875.082	16.17888
875.261	8.27164
875.441	-53.74188
875.62	3.761
875.8	-18.79701
875.979	34.2324
876.159	-0.75197
876.338	3.75882
876.518	13.92298
876.697	24.06947
876.876	-23.3146
877.056	-19.92522
877.235	-34.57318
877.415	24.07507
877.594	-0.75223
877.773	50.04364
877.953	-31.20003
878.132	28.57367
878.311	4.89053
878.49	27.45903
878.67	-1.88025
878.849	15.03703
879.028	7.14576
879.207	-0.75185
879.387	7.14604
879.566	13.91489
879.745	8.27676
879.924	-13.15461
880.103	-7.52287
880.282	60.21809
880.461	61.37225
880.64	44.38155
880.819	10.53447
880.998	37.62167
881.178	-21.05265
881.357	4.88845
881.536	19.56326
881.715	43.26409
881.893	24.07507
882.072	-3.00636
882.251	-4.13606
882.43	8.27228
882.609	-5.26438
882.788	13.90791
882.967	0.37612
883.146	13.91436
883.325	9.40195
883.503	44.38499
883.682	26.34027
883.861	26.33108
884.04	13.92298
884.219	7.14273
884.397	11.66475
884.576	-12.02638
884.755	8.2742
884.933	-4.13558
885.112	50.05141
885.291	22.94432
885.469	29.71939
885.648	46.64547
885.827	6.01713
886.005	38.74207
886.184	19.55947
886.363	54.5504
886.541	36.51216
886.72	38.74207
886.898	-123.48327
887.077	47.79345
887.255	-3.00962
887.434	76.05498
887.612	30.85216
887.791	38.74507
887.969	-5.26581
888.147	6.0169
888.326	8.27324
888.504	-18.79121
888.682	11.65842
888.861	27.46648
889.039	-23.3137
889.218	16.16949
889.396	-42.48209
889.574	-18.79339
889.752	2.63306
889.931	2.63133
890.109	2.63326
890.287	42.14282
890.465	-27.82388
890.643	46.66537
890.822	31.984
891	-4.13574
891.178	-18.79919
891.356	16.16824
891.534	19.56858
891.712	-28.93792
891.89	-9.77822
892.068	19.55342
892.247	-1.88068
892.425	52.30328
892.603	-17.66817
892.781	36.49515
892.959	-7.52113
893.137	44.38155
893.314	16.17763
893.492	52.3114
893.67	-23.3137
893.848	10.52592
894.026	-22.17833
894.204	4.88751
894.382	-0.7522
894.56	-4.13494
894.738	18.43497
894.915	-21.05103
895.093	17.31066
895.271	15.04109
895.449	-28.95579
895.626	-12.02777
895.804	-1.88046
895.982	35.35752
896.16	4.89034
896.337	36.48384
896.515	72.65648
896.693	13.91489
896.87	-1.88075
897.048	-22.17833
897.225	2.63295
897.403	-8.64612
897.581	16.17825
897.758	0.37587
897.936	-14.28407
898.113	42.12486
898.291	-3.00857
898.468	-28.9368
898.646	16.18014
898.823	-28.93569
899.001	-1.88025
899.178	42.13791
899.356	37.63482
899.533	19.5572
899.71	-19.92675
899.888	57.93517
900.065	-46.96451
900.242	27.45903
900.42	29.724
900.597	57.94191
900.774	20.68751
900.952	79.43585
901.129	30.85336
901.306	17.3006
901.483	17.30328
901.661	16.16574
901.838	21.81212
902.015	0.37593
902.192	18.42926
902.369	37.60566
902.546	-6.39382
902.723	3.75897
902.901	1.50481
903.078	38.75408
903.255	38.76914
903.432	24.06854
903.609	4.88902
903.786	22.93634
903.963	2.63265
904.14	35.35615
904.317	2.63326
904.494	17.30462
904.671	-6.39481
904.848	37.62313
905.024	57.96216
905.201	47.77861
905.378	-18.80209
905.555	-5.26357
905.732	15.04575
905.909	6.01597
906.086	-43.59228
906.262	55.69523
906.439	11.65978
906.616	-1.88046
906.793	-19.9306
906.969	39.86971
907.146	-12.03148
907.323	-5.26174
907.5	30.84857
907.676	36.48949
907.853	33.11863
908.03	24.06575
908.206	-19.93292
908.383	26.32803
908.559	-0.7522
908.736	19.55569
908.912	-21.05265
909.089	43.27081
909.266	-27.8228
909.442	40.99413
909.619	17.30261
909.795	24.07507
909.972	8.27676
910.148	2.63092
910.324	39.89756
910.501	27.45265
910.677	33.11349
910.854	56.81868
911.03	4.88902
911.206	25.20407
911.383	-35.704
911.559	42.13138
911.735	-14.28242
911.912	17.29258
912.088	25.19822
912.264	-8.64612
912.44	0.37605
912.617	30.83544
912.793	0.37608
912.969	54.54829
913.145	22.95233
913.321	45.52312
913.498	-18.80137
913.674	8.27292
913.85	33.11349
914.026	-3.00752
914.202	-0.75205
914.378	0.37601
914.554	31.98648
914.73	-25.55605
914.906	7.14521
915.082	4.88921
915.258	31.98524
915.434	6.01435
915.61	21.82395
915.786	43.26745
915.962	41.01797
916.138	26.32192
916.314	-10.90542
916.49	1.50405
916.665	-6.39333
916.841	33.1045
917.017	7.14715
917.193	18.42356
917.369	35.3836
917.545	-1.87966
917.72	41.01638
917.896	6.0162
918.072	43.28593
918.247	30.85216
918.423	52.3175
918.599	25.20017
918.775	-13.15968
918.95	-0.75188
919.126	-22.17577
919.301	48.9044
919.477	2.63245
919.653	51.17344
919.828	8.2726
920.004	16.177
920.179	-13.16121
920.355	-68.31878
920.53	3.76013
920.706	21.81803
920.881	7.14825
921.057	-22.17662
921.232	8.2758
921.408	2.63173
921.583	6.01807
921.759	21.81296
921.934	9.4056
922.109	33.10322
922.285	36.50506
922.46	1.50382
922.635	-6.39308
922.811	33.09041
922.986	13.9192
923.161	-7.51938
923.336	6.01737
923.512	17.3006
923.687	4.89015
923.862	20.67951
924.037	-19.92445
924.212	10.52714
924.388	30.86174
924.563	44.39531
924.738	-14.28904
924.913	74.88031
925.088	-22.18433
925.263	18.4257
925.438	-14.28518
925.613	18.41787
925.788	19.56326
925.963	19.55267
926.138	31.9778
926.313	29.71709
926.488	55.70822
926.663	17.3006
926.838	-14.28793
927.013	24.07227
927.188	37.61584
927.363	9.40014
927.538	-5.26337
927.713	27.46116
927.888	-1.88039
928.062	16.16824
928.237	8.27484
928.412	26.32293
928.587	-3.0088
928.761	-3.00787
928.936	10.52999
929.111	7.14493
929.286	-28.94908
929.46	11.65933
929.635	24.076
929.81	17.29125
929.984	38.7601
930.159	17.29192
930.334	-31.20124
930.508	30.84379
930.683	22.95055
930.857	25.20017
931.032	-10.90374
931.206	48.9063
931.381	28.59912
931.556	18.42356
931.73	60.21575
931.904	26.32293
932.079	-0.75223
932.253	-21.04373
932.428	10.53039
932.602	-13.15461
932.777	-9.77709
932.951	8.27228
933.125	-14.2907
933.3	45.52135
933.474	16.17449
933.648	57.94416
933.823	1.50463
933.997	46.64185
934.171	16.17888
934.345	-23.29931
934.52	-8.6488
934.694	22.94432
934.868	36.50223
935.042	39.86662
935.217	-12.0366
935.391	34.21651
935.565	37.61439
935.739	30.84977
935.913	-17.66953
936.087	-7.51677
936.261	28.60357
936.435	7.1419
936.609	-1.88046
936.783	21.81634
936.957	12.79434
937.131	-30.05669
937.305	8.2742
937.479	42.13791
937.653	-3.00799
937.827	3.75955
938.001	1.50423
938.175	11.65482
938.349	-1.88003
938.523	8.27548
938.697	-22.18261
938.87	9.4005
939.044	-0.75217
939.218	44.39703
939.392	-10.90542
939.566	62.46657
939.739	7.14576
939.913	50.04558
940.087	-10.90205
940.261	13.91274
940.434	3.76202
940.608	-23.29573
940.782	45.54788
940.955	51.17145
941.129	-15.41504
941.302	8.27068
941.476	45.55674
941.65	56.79886
941.823	-5.2656
941.997	37.60566
942.17	8.2726
942.344	3.75897
942.517	-28.9368
942.691	39.86508
942.864	34.23638
943.038	13.91382
943.211	3.76071
943.385	34.23506
943.558	-8.64813
943.731	-42.45264
943.905	-14.28904
944.078	4.88807
944.251	-13.15816
944.425	43.26074
944.598	-5.26438
944.771	68.11513
944.945	45.53549
945.118	56.82089
945.291	29.72515
945.464	35.36026
945.638	9.40268
945.811	45.52842
945.984	-9.7786
946.157	9.39832
946.33	52.3175
946.503	33.09297
946.677	56.84297
946.85	30.84021
947.023	-26.69227
947.196	9.40123
947.369	18.43712
947.542	43.26745
947.715	-9.77558
947.888	-4.13478
948.061	27.46116
948.234	0.37592
948.407	6.01737
948.58	22.94521
948.753	-22.17833
948.926	29.71019
949.099	9.40414
949.271	33.10066
949.444	16.17763
949.617	57.93966
949.79	12.78889
949.963	70.37036
950.136	-24.43753
950.308	15.03935
950.481	36.49232
950.654	16.16512
950.827	7.14825
950.999	52.29922
951.172	-6.39135
951.345	36.48242
951.517	27.47181
951.69	42.13138
951.863	-1.88061
952.035	22.94521
952.208	-4.13606
952.381	54.57582
952.553	21.81549
952.726	59.06264
952.898	-32.33087
953.071	-0.75176
953.243	33.10194
953.416	10.52633
953.588	-26.68713
953.761	52.30531
953.933	-1.87952
954.106	47.77861
954.278	-26.69021
954.45	-12.03241
954.623	31.984
954.795	39.87125
954.967	6.01877
955.14	56.81427
955.312	46.65813
955.484	18.42641
955.657	27.47394
955.829	43.26074
956.001	-21.05672
956.173	-13.15867
956.346	20.69472
956.518	12.78295
956.69	25.20798
956.862	26.32497
957.034	-26.69433
957.207	68.07289
957.379	-17.67158
957.551	63.60908
957.723	-25.56591
957.895	31.97532
958.067	6.01713
958.239	-23.29214
958.411	0.37603
958.583	-5.26337
958.755	33.10964
958.927	6.01551
959.099	9.40523
959.271	-15.40909
959.443	44.40737
959.615	22.93368
959.787	-21.05672
959.959	30.8426
960.13	-15.41682
960.302	1.50359
960.474	19.56099
960.646	-5.26296
960.818	38.75709
960.99	31.96913
961.161	16.17387
961.333	-12.02684
961.505	-15.41028
961.677	16.16574
961.848	7.14687
962.02	13.91705
962.192	35.36986
962.363	35.35478
962.535	7.14659
962.707	1.50399
962.878	33.12121
963.05	2.63133
963.221	18.43354
963.393	-17.66544
963.564	-10.905
963.736	15.03761
963.907	7.14909
964.079	25.2031
964.25	-8.64813
964.422	-15.41028
964.593	-13.15918
964.765	36.48384
964.936	-14.28904
965.108	11.65392
965.279	-6.39185
965.45	-1.88032
965.622	25.20603
965.793	19.56251
965.964	35.36437
966.136	-4.13558
966.307	45.53725
966.478	35.36437
966.65	21.82226
966.821	8.26941
966.992	22.94255
967.163	4.88694
967.334	-0.75223
967.506	39.86971
967.677	59.07867
967.848	0.37593
968.019	7.1477
968.19	18.42926
968.361	53.4477
968.532	-13.15258
968.703	-39.09629
968.874	-32.31592
969.045	-7.52113
969.216	3.75984
969.387	18.43069
969.558	-17.66544
969.729	26.33925
969.9	3.7594
970.071	29.72054
970.242	17.3006
970.413	1.50428
970.584	6.01527
970.755	4.88958
970.926	48.93098
971.097	7.14383
971.267	-3.00659
971.438	2.63316
971.609	47.77676
971.78	7.14493
971.951	37.62022
972.121	31.98276
972.292	16.16449
972.463	-19.92599
972.633	54.54406
972.804	-3.0081
972.975	-7.51562
973.145	10.53039
973.316	2.63214
973.487	28.59579
973.657	33.10066
973.828	-3.00822
973.998	37.60566
974.169	33.11349
974.339	15.04284
974.51	6.01667
974.68	25.19335
974.851	24.076
975.021	13.91059
975.192	26.34027
975.362	25.1953
975.533	-25.5669
975.703	12.78889
975.874	-25.55999
976.044	15.04284
976.214	36.50223
976.385	10.52876
976.555	8.27516
976.725	20.6835
976.896	63.61155
977.066	24.06575
977.236	35.37398
977.406	35.35889
977.577	20.68991
977.747	28.59136
977.917	13.92136
978.087	35.35615
978.257	-28.94238
978.427	33.09553
978.598	34.255
978.768	15.03993
978.938	-14.2907
979.108	21.81465
979.278	0.37608
979.448	11.65662
979.618	12.78889
979.788	16.17136
979.958	8.27644
980.128	19.55267
980.298	21.81718
980.468	61.31744
980.638	-19.92445
980.808	12.78493
980.978	-22.17748
981.148	-10.89701
981.317	2.63295
981.487	31.96789
981.657	3.76144
981.827	16.17261
981.997	41.02275
982.167	54.54829
982.336	44.40737
982.506	55.68659
982.676	-13.1607
982.846	-22.16809
983.015	-15.41385
983.185	16.162
983.355	-43.59732
983.524	-27.81207
983.694	-12.03241
983.864	-3.00741
984.033	-17.67021
984.203	27.45053
984.372	-19.93138
984.542	12.78197
984.712	15.04284
984.881	25.19432
985.051	-21.05347
985.22	11.65752
985.39	-4.13638
985.559	13.90845
985.728	13.91759
985.898	47.76936
986.067	25.20603
986.237	-27.81636
986.406	17.30127
986.576	43.25404
986.745	34.23638
986.914	51.16947
987.084	25.207
987.253	12.78147
987.422	18.4314
987.591	10.52714
987.761	16.17449
987.93	17.29592
988.099	21.81549
988.268	8.27196
988.438	-9.7786
988.607	43.26577
988.776	13.91543
988.945	54.55886
989.114	9.4056
989.283	59.06951
989.452	19.56251
989.621	6.01527
989.791	31.9778
989.96	-8.64612
990.129	-9.77747
990.298	26.32395
990.467	27.47608
990.636	48.91388
990.805	-1.88025
990.974	27.45796
991.142	0.37611
991.311	-5.26174
991.48	-7.51996
991.649	18.42214
991.818	-16.54265
991.987	0.3758
992.156	44.41254
992.325	20.6851
992.493	-6.39185
992.662	-199.66495
992.831	7.14715
993	1.50376
993.168	9.40232
993.337	48.9063
993.506	30.84857
993.675	28.57808
993.843	-17.67021
994.012	47.77491
994.181	-15.41325
994.349	43.25404
994.518	-8.64946
994.686	51.16748
994.855	-4.13638
995.024	-10.90163
995.192	1.50446
995.361	-8.64279
995.529	6.01713
995.698	-8.64346
995.866	12.79037
996.035	13.9122
996.203	1.50405
996.371	42.11671
996.54	6.01853
996.708	16.16512
996.877	26.34232
997.045	39.87125
997.213	9.40305
997.382	35.34795
997.55	-19.92445
997.718	-12.02869
997.887	10.53039
998.055	9.39724
998.223	-13.15867
998.391	13.90952
998.56	28.59912
998.728	27.45478
998.896	59.11545
999.064	37.61439
999.232	-31.20847
999.401	-17.66068
999.569	18.43426
999.737	46.64908
999.905	7.14604
1000.073	52.30328
1000.241	1.50405
1000.409	68.11513
1000.577	-17.67363
1000.745	35.35342
1000.913	10.53039
1001.081	-19.9183
1001.249	1.5044
1001.417	-22.17235
1001.585	9.40232
1001.753	26.32395
1001.921	12.78839
1002.089	19.55191
1002.256	12.78988
1002.424	37.61876
1002.592	9.40195
1002.76	20.6843
1002.928	-3.00857
1003.096	52.30328
1003.263	16.17324
1003.431	24.07227
1003.599	4.88921
1003.767	25.1914
1003.934	31.97656
1004.102	38.71215
1004.27	0.37606
1004.437	1.50388
1004.605	26.3413
1004.773	30.83544
1004.94	6.0169
1005.108	-13.15309
1005.275	26.33517
1005.443	28.58029
1005.61	-8.65013
1005.778	28.57367
1005.945	-5.26418
1006.113	28.5825
1006.28	8.27324
1006.448	17.29926
1006.615	-5.2654
1006.783	68.10984
1006.95	7.14493
1007.118	37.60856
1007.285	36.48807
1007.452	20.6819
1007.62	33.10835
1007.787	2.63173
1007.954	30.85455
1008.122	13.91006
1008.289	24.07413
1008.456	53.42902
1008.623	27.46968
1008.791	34.22843
1008.958	25.20407
1009.125	8.27228
1009.292	26.34027
1009.459	37.6173
1009.627	-18.79556
1009.794	10.52511
1009.961	-15.41504
1010.128	65.8546
1010.295	9.40232
1010.462	71.52849
1010.629	42.151
1010.796	38.73607
1010.963	24.07973
1011.13	-1.87908
1011.297	9.40414
1011.464	-12.02591
1011.631	-5.26438
1011.798	2.63184
1011.965	33.10835
1012.132	28.5814
1012.299	16.17324
1012.466	13.90577
1012.633	-3.0081
1012.799	21.80959
1012.966	4.88902
1013.133	33.10322
1013.3	2.63316
1013.467	-35.68615
1013.633	47.7953
1013.8	25.19043
1013.967	0.37615
1014.134	28.57146
1014.3	28.58914
1014.467	6.01342
1014.634	15.03645
1014.8	37.61584
1014.967	4.88902
1015.134	30.84021
1015.3	-13.16274
1015.467	-24.42623
1015.633	-7.52258
1015.8	10.53039
1015.966	12.79037
1016.133	8.27068
1016.3	-34.59185
1016.466	24.06947
1016.632	-27.80886
1016.799	30.83902
1016.965	-23.30919
1017.132	26.31988
1017.298	26.32904
1017.465	45.52488
1017.631	-6.39333
1017.797	62.48356
1017.964	48.92338
1018.13	-27.80351
1018.296	21.8231
1018.463	45.50725
1018.629	22.94521
1018.795	2.63163
1018.961	0.37605
1019.128	0.37582
1019.294	-13.15918
1019.46	35.35615
1019.626	21.81887
1019.792	22.9328
1019.959	-0.75203
1020.125	76.01949
1020.291	-22.18261
1020.457	12.78098
1020.623	-37.95753
1020.789	52.27896
1020.955	-21.05265
1021.121	36.48949
1021.287	-1.87995
1021.453	19.55796
1021.619	35.36574
1021.785	25.1914
1021.951	17.30127
1022.117	21.81549
1022.283	-3.00927
1022.449	55.67364
1022.615	39.88826
1022.781	-25.54328
1022.946	31.98028
1023.112	57.9509
1023.278	-31.19522
1023.444	89.56759
1023.61	-0.75214
1023.775	33.09938
1023.941	36.48807
1024.107	17.29793
1024.273	17.29793
1024.438	-6.38815
1024.604	-28.94015
1024.77	-61.58554
1024.935	-0.75223
1025.101	56.81207
1025.267	-3.0088
1025.432	29.71133
1025.598	46.65813
1025.763	2.63224
1025.929	6.01807
1026.095	39.85737
1026.26	34.23904
1026.426	29.701
1026.591	-15.41742
1026.757	28.58471
1026.922	-6.39234
1027.087	0.37593
1027.253	3.76129
1027.418	31.96542
1027.584	-24.4347
1027.749	35.35478
1027.914	-5.26398
1028.08	43.25739
1028.245	0.37608
1028.41	18.42641
1028.576	12.78592
1028.741	1.5037
1028.906	-28.93792
1029.072	15.03993
1029.237	9.40305
1029.402	19.54965
1029.567	-18.79629
1029.732	51.16748
1029.898	6.01644
1030.063	70.35398
1030.228	48.91199
1030.393	38.74207
1030.558	33.11606
1030.723	72.61697
1030.888	2.63255
1031.053	61.3317
1031.218	-0.7522
1031.383	3.75897
1031.548	10.53406
1031.713	8.27196
1031.878	-9.77747
1032.043	27.4569
1032.208	7.14632
1032.373	12.77999
1032.538	3.75984
1032.703	7.14328
1032.868	6.01923
1033.033	46.65451
1033.198	36.50506
1033.362	11.65617
1033.527	21.81549
1033.692	0.37589
1033.857	9.40123
1034.021	65.84949
1034.186	7.1477
1034.351	-8.64479
1034.516	35.36437
1034.68	25.20114
1034.845	21.81549
1035.01	27.45584
1035.174	28.59579
1035.339	24.06947
1035.504	28.59358
1035.668	-18.78543
1035.833	2.63265
1035.997	21.80959
1036.162	42.15428
1036.326	68.12042
1036.491	9.40086
1036.655	1.50376
1036.82	-25.56295
1036.984	-35.69164
1037.149	-50.3508
1037.313	-1.87901
1037.478	17.30127
1037.642	29.69413
1037.807	21.81549
1037.971	40.9973
1038.135	18.4314
1038.3	33.09553
1038.464	36.49798
1038.628	40.99889
1038.792	1.50411
1038.957	29.71019
1039.121	21.81887
1039.285	22.93723
1039.449	12.78493
1039.614	26.32395
1039.778	34.2271
1039.942	18.41574
1040.106	48.92148
1040.27	10.52551
1040.434	-41.32479
1040.599	30.82829
1040.763	-16.54137
1040.927	3.76013
1041.091	3.76071
1041.255	19.54814
1041.419	42.12975
1041.583	8.27005
1041.747	-36.8237
1041.911	-12.02499
1042.075	19.55645
1042.239	55.67364
1042.403	-26.68713
1042.567	-14.27802
1042.731	-1.87995
1042.894	-12.02545
1043.058	37.62605
1043.222	20.67871
1043.386	-24.42529
1043.55	29.70674
1043.714	-0.75217
1043.877	30.8426
1044.041	29.71363
1044.205	13.91006
1044.369	30.84857
1044.532	12.78443
1044.696	-3.00671
1044.86	19.54814
1045.023	-30.06711
1045.187	31.96048
1045.351	-23.3056
1045.514	39.86817
1045.678	-17.66544
1045.841	46.64005
